10.0	1898
10.01	1887
10.02	1903
10.03	1903
10.04	1905
10.05	1898
10.06	1834
10.07	1863
10.08	1874
10.09	1918
10.1	1935
10.11	1903
10.12	1890
10.13	1907
10.14	1883
10.15	1912
10.16	1886
10.17	1922
10.18	1876
10.19	1901
10.2	1900
10.21	1897
10.22	1891
10.23	1870
10.24	1887
10.25	1961
10.26	1958
10.27	1916
10.28	1943
10.29	1903
10.3	1880
10.31	1846
10.32	1909
10.33	1958
10.34	1908
10.35	1877
10.36	1897
10.37	1914
10.38	1939
10.39	1923
10.4	1941
10.41	1984
10.42	1922
10.43	1895
10.44	1942
10.45	1910
10.46	1862
10.47	1872
10.48	1936
10.49	1903
10.5	1893
10.51	1864
10.52	1903
10.53	1936
10.54	1959
10.55	1939
10.56	1895
10.57	1916
10.58	1880
10.59	1872
10.6	1865
10.61	1887
10.62	1919
10.63	1969
10.64	2021
10.65	1972
10.66	1910
10.67	1947
10.68	1929
10.69	1964
10.7	1988
10.71	1979
10.72	1977
10.73	2008
10.74	1992
10.75	1985
10.76	1954
10.77	1950
10.78	1970
10.79	1940
10.8	1926
10.81	1918
10.82	1929
10.83	1977
10.84	1960
10.85	1924
10.86	1950
10.87	1966
10.88	1957
10.89	1943
10.9	1935
10.91	1957
10.92	2014
10.93	1957
10.94	1933
10.95	1999
10.96	1961
10.97	1998
10.98	2040
10.99	2035
11.0	2037
11.01	1983
11.02	1925
11.03	1963
11.04	2015
11.05	1965
11.06	1979
11.07	2014
11.08	1992
11.09	2004
11.1	2006
11.11	2042
11.12	2027
11.13	2021
11.14	1994
11.15	2036
11.16	2007
11.17	1991
11.18	1945
11.19	1942
11.2	2006
11.21	2009
11.22	1974
11.23	1991
11.24	2049
11.25	2009
11.26	1997
11.27	1958
11.28	1986
11.29	2007
11.3	1979
11.31	1966
11.32	1988
11.33	1990
11.34	2000
11.35	2008
11.36	1990
11.37	2051
11.38	2016
11.39	2044
11.4	2057
11.41	2048
11.42	2009
11.43	1973
11.44	2000
11.45	1978
11.46	2032
11.47	2039
11.48	2027
11.49	2034
11.5	2035
11.51	1986
11.52	1979
11.53	2007
11.54	2060
11.55	2055
11.56	2066
11.57	2046
11.58	2059
11.59	2026
11.6	1976
11.61	2069
11.62	2039
11.63	2072
11.64	2084
11.65	2082
11.66	2086
11.67	2076
11.68	2086
11.69	2028
11.7	1958
11.71	2027
11.72	2104
11.73	2137
11.74	2079
11.75	2036
11.76	2073
11.77	2104
11.78	2014
11.79	2064
11.8	2081
11.81	2054
11.82	2076
11.83	2063
11.84	2086
11.85	2082
11.86	2092
11.87	2087
11.88	2077
11.89	2068
11.9	2056
11.91	2033
11.92	2032
11.93	2065
11.94	2067
11.95	2037
11.96	2071
11.97	2103
11.98	2095
11.99	2080
12.0	2071
12.01	2086
12.02	2101
12.03	2124
12.04	2104
12.05	2062
12.06	2017
12.07	2104
12.08	2115
12.09	2054
12.1	2028
12.11	2033
12.12	2115
12.13	2144
12.14	2095
12.15	2052
12.16	2072
12.17	2104
12.18	2073
12.19	2146
12.2	2232
12.21	2168
12.22	2068
12.23	2079
12.24	2091
12.25	2099
12.26	2145
12.27	2103
12.28	2103
12.29	2061
12.3	2052
12.31	2060
12.32	2106
12.33	2063
12.34	2082
12.35	2112
12.36	2047
12.37	2085
12.38	2098
12.39	2076
12.4	2107
12.41	2094
12.42	2066
12.43	2107
12.44	2124
12.45	2073
12.46	2096
12.47	2162
12.48	2144
12.49	2127
12.5	2117
12.51	2115
12.52	2138
12.53	2158
12.54	2155
12.55	2123
12.56	2131
12.57	2101
12.58	2088
12.59	2104
12.6	2138
12.61	2127
12.62	2122
12.63	2122
12.64	2137
12.65	2174
12.66	2094
12.67	2134
12.68	2117
12.69	2123
12.7	2177
12.71	2155
12.72	2149
12.73	2142
12.74	2162
12.75	2192
12.76	2158
12.77	2139
12.78	2144
12.79	2157
12.8	2163
12.81	2141
12.82	2194
12.83	2164
12.84	2187
12.85	2128
12.86	2144
12.87	2107
12.88	2135
12.89	2154
12.9	2160
12.91	2190
12.92	2143
12.93	2115
12.94	2215
12.95	2229
12.96	2215
12.97	2183
12.98	2159
12.99	2193
13.0	2195
13.01	2151
13.02	2134
13.03	2205
13.04	2152
13.05	2084
13.06	2158
13.07	2177
13.08	2204
13.09	2184
13.1	2136
13.11	2180
13.12	2229
13.13	2223
13.14	2157
13.15	2142
13.16	2182
13.17	2154
13.18	2117
13.19	2206
13.2	2197
13.21	2171
13.22	2148
13.23	2130
13.24	2145
13.25	2195
13.26	2206
13.27	2199
13.28	2158
13.29	2257
13.3	2226
13.31	2191
13.32	2206
13.33	2212
13.34	2201
13.35	2223
13.36	2182
13.37	2178
13.38	2219
13.39	2289
13.4	2300
13.41	2222
13.42	2176
13.43	2176
13.44	2187
13.45	2219
13.46	2246
13.47	2191
13.48	2178
13.49	2155
13.5	2220
13.51	2233
13.52	2225
13.53	2200
13.54	2196
13.55	2210
13.56	2239
13.57	2208
13.58	2181
13.59	2186
13.6	2167
13.61	2170
13.62	2147
13.63	2164
13.64	2205
13.65	2190
13.66	2217
13.67	2212
13.68	2179
13.69	2222
13.7	2227
13.71	2239
13.72	2224
13.73	2253
13.74	2228
13.75	2231
13.76	2244
13.77	2210
13.78	2199
13.79	2221
13.8	2252
13.81	2260
13.82	2255
13.83	2259
13.84	2222
13.85	2245
13.86	2249
13.87	2237
13.88	2201
13.89	2244
13.9	2260
13.91	2295
13.92	2258
13.93	2211
13.94	2186
13.95	2222
13.96	2231
13.97	2229
13.98	2233
13.99	2232
14.0	2243
14.01	2252
14.02	2221
14.03	2240
14.04	2310
14.05	2284
14.06	2219
14.07	2202
14.08	2228
14.09	2258
14.1	2225
14.11	2226
14.12	2243
14.13	2215
14.14	2211
14.15	2268
14.16	2277
14.17	2288
14.18	2244
14.19	2212
14.2	2238
14.21	2263
14.22	2279
14.23	2245
14.24	2243
14.25	2287
14.26	2294
14.27	2295
14.28	2274
14.29	2272
14.3	2286
14.31	2278
14.32	2256
14.33	2267
14.34	2276
14.35	2322
14.36	2312
14.37	2340
14.38	2330
14.39	2295
14.4	2293
14.41	2282
14.42	2221
14.43	2225
14.44	2276
14.45	2301
14.46	2283
14.47	2242
14.48	2234
14.49	2249
14.5	2225
14.51	2242
14.52	2255
14.53	2252
14.54	2303
14.55	2243
14.56	2237
14.57	2245
14.58	2281
14.59	2265
14.6	2218
14.61	2201
14.62	2189
14.63	2228
14.64	2231
14.65	2234
14.66	2265
14.67	2266
14.68	2279
14.69	2314
14.7	2311
14.71	2269
14.72	2233
14.73	2272
14.74	2259
14.75	2255
14.76	2227
14.77	2201
14.78	2225
14.79	2230
14.8	2264
14.81	2219
14.82	2195
14.83	2215
14.84	2243
14.85	2276
14.86	2309
14.87	2302
14.88	2290
14.89	2265
14.9	2210
14.91	2179
14.92	2211
14.93	2245
14.94	2257
14.95	2261
14.96	2244
14.97	2215
14.98	2141
14.99	2205
15.0	2245
15.01	2263
15.02	2227
15.03	2212
15.04	2254
15.05	2288
15.06	2267
15.07	2238
15.08	2226
15.09	2233
15.1	2221
15.11	2165
15.12	2158
15.13	2206
15.14	2227
15.15	2214
15.16	2250
15.17	2218
15.18	2187
15.19	2218
15.2	2235
15.21	2254
15.22	2273
15.23	2283
15.24	2279
15.25	2277
15.26	2257
15.27	2273
15.28	2244
15.29	2209
15.3	2198
15.31	2175
15.32	2167
15.33	2203
15.34	2248
15.35	2294
15.36	2309
15.37	2238
15.38	2147
15.39	2164
15.4	2265
15.41	2259
15.42	2229
15.43	2213
15.44	2168
15.45	2156
15.46	2162
15.47	2194
15.48	2230
15.49	2205
15.5	2167
15.51	2195
15.52	2195
15.53	2175
15.54	2211
15.55	2204
15.56	2173
15.57	2210
15.58	2258
15.59	2234
15.6	2273
15.61	2247
15.62	2213
15.63	2203
15.64	2205
15.65	2234
15.66	2220
15.67	2265
15.68	2266
15.69	2251
15.7	2209
15.71	2211
15.72	2214
15.73	2199
15.74	2210
15.75	2194
15.76	2202
15.77	2206
15.78	2229
15.79	2240
15.8	2235
15.81	2218
15.82	2198
15.83	2203
15.84	2200
15.85	2225
15.86	2234
15.87	2158
15.88	2125
15.89	2163
15.9	2208
15.91	2233
15.92	2229
15.93	2194
15.94	2204
15.95	2214
15.96	2220
15.97	2190
15.98	2131
15.99	2130
16.0	2179
16.01	2150
16.02	2179
16.03	2216
16.04	2172
16.05	2187
16.06	2221
16.07	2216
16.08	2199
16.09	2182
16.1	2140
16.11	2154
16.12	2158
16.13	2158
16.14	2187
16.15	2205
16.16	2194
16.17	2146
16.18	2138
16.19	2200
16.2	2197
16.21	2177
16.22	2196
16.23	2187
16.24	2197
16.25	2188
16.26	2157
16.27	2173
16.28	2164
16.29	2168
16.3	2191
16.31	2244
16.32	2257
16.33	2223
16.34	2184
16.35	2141
16.36	2133
16.37	2163
16.38	2204
16.39	2207
16.4	2218
16.41	2226
16.42	2209
16.43	2207
16.44	2187
16.45	2185
16.46	2234
16.47	2217
16.48	2196
16.49	2170
16.5	2156
16.51	2217
16.52	2187
16.53	2149
16.54	2175
16.55	2175
16.56	2162
16.57	2147
16.58	2146
16.59	2170
16.6	2175
16.61	2179
16.62	2153
16.63	2164
16.64	2170
16.65	2184
16.66	2187
16.67	2154
16.68	2155
16.69	2168
16.7	2171
16.71	2180
16.72	2202
16.73	2200
16.74	2220
16.75	2244
16.76	2237
16.77	2202
16.78	2165
16.79	2125
16.8	2149
16.81	2184
16.82	2174
16.83	2182
16.84	2173
16.85	2160
16.86	2203
16.87	2200
16.88	2171
16.89	2168
16.9	2184
16.91	2210
16.92	2187
16.93	2164
16.94	2155
16.95	2169
16.96	2171
16.97	2137
16.98	2104
16.99	2112
17.0	2159
17.01	2151
17.02	2145
17.03	2196
17.04	2198
17.05	2159
17.06	2123
17.07	2105
17.08	2139
17.09	2169
17.1	2165
17.11	2129
17.12	2122
17.13	2143
17.14	2146
17.15	2124
17.16	2133
17.17	2182
17.18	2181
17.19	2173
17.2	2190
17.21	2174
17.22	2164
17.23	2177
17.24	2186
17.25	2175
17.26	2154
17.27	2132
17.28	2154
17.29	2222
17.3	2224
17.31	2182
17.32	2177
17.33	2156
17.34	2136
17.35	2147
17.36	2161
17.37	2170
17.38	2170
17.39	2155
17.4	2163
17.41	2182
17.42	2167
17.43	2151
17.44	2157
17.45	2149
17.46	2160
17.47	2172
17.48	2151
17.49	2173
17.5	2202
17.51	2174
17.52	2128
17.53	2144
17.54	2160
17.55	2148
17.56	2136
17.57	2098
17.58	2099
17.59	2108
17.6	2120
17.61	2155
17.62	2152
17.63	2158
17.64	2189
17.65	2207
17.66	2215
17.67	2203
17.68	2156
17.69	2123
17.7	2109
17.71	2130
17.72	2174
17.73	2185
17.74	2187
17.75	2159
17.76	2139
17.77	2146
17.78	2166
17.79	2150
17.8	2121
17.81	2140
17.82	2147
17.83	2148
17.84	2156
17.85	2169
17.86	2169
17.87	2163
17.88	2185
17.89	2204
17.9	2207
17.91	2166
17.92	2150
17.93	2204
17.94	2208
17.95	2158
17.96	2149
17.97	2172
17.98	2202
17.99	2196
18.0	2159
18.01	2185
18.02	2221
18.03	2222
18.04	2216
18.05	2157
18.06	2158
18.07	2245
18.08	2276
18.09	2278
18.1	2286
18.11	2272
18.12	2236
18.13	2211
18.14	2216
18.15	2258
18.16	2274
18.17	2259
18.18	2245
18.19	2246
18.2	2265
18.21	2304
18.22	2296
18.23	2294
18.24	2314
18.25	2320
18.26	2329
18.27	2351
18.28	2338
18.29	2353
18.3	2384
18.31	2396
18.32	2424
18.33	2470
18.34	2530
18.35	2518
18.36	2463
18.37	2487
18.38	2565
18.39	2582
18.4	2660
18.41	2746
18.42	2806
18.43	2880
18.44	2957
18.45	3000
18.46	3069
18.47	3204
18.48	3343
18.49	3449
18.5	3592
18.51	3803
18.52	4014
18.53	4245
18.54	4526
18.55	4810
18.56	5134
18.57	5532
18.58	6092
18.59	6694
18.6	7350
18.61	8067
18.62	8868
18.63	9554
18.64	9931
18.65	10160
18.66	10137
18.67	9915
18.68	9457
18.69	8903
18.7	8411
18.71	7835
18.72	7213
18.73	6661
18.74	6102
18.75	5514
18.76	5027
18.77	4556
18.78	4063
18.79	3659
18.8	3398
18.81	3196
18.82	2942
18.83	2770
18.84	2698
18.85	2607
18.86	2555
18.87	2551
18.88	2503
18.89	2408
18.9	2385
18.91	2379
18.92	2350
18.93	2324
18.94	2295
18.95	2295
18.96	2261
18.97	2230
18.98	2253
18.99	2265
19.0	2289
19.01	2307
19.02	2235
19.03	2175
19.04	2158
19.05	2189
19.06	2219
19.07	2156
19.08	2163
19.09	2187
19.1	2197
19.11	2195
19.12	2192
19.13	2202
19.14	2172
19.15	2159
19.16	2131
19.17	2123
19.18	2136
19.19	2137
19.2	2147
19.21	2108
19.22	2121
19.23	2134
19.24	2144
19.25	2146
19.26	2149
19.27	2126
19.28	2099
19.29	2095
19.3	2128
19.31	2128
19.32	2159
19.33	2169
19.34	2163
19.35	2170
19.36	2151
19.37	2102
19.38	2099
19.39	2089
19.4	2076
19.41	2112
19.42	2091
19.43	2070
19.44	2054
19.45	2056
19.46	2086
19.47	2100
19.48	2043
19.49	2047
19.5	2063
19.51	2092
19.52	2070
19.53	2029
19.54	2029
19.55	2083
19.56	2105
19.57	2101
19.58	2100
19.59	2086
19.6	2075
19.61	2106
19.62	2066
19.63	2085
19.64	2093
19.65	2085
19.66	2080
19.67	2081
19.68	2079
19.69	2090
19.7	2090
19.71	2097
19.72	2103
19.73	2044
19.74	2004
19.75	1999
19.76	2000
19.77	2041
19.78	2044
19.79	2036
19.8	2076
19.81	2113
19.82	2056
19.83	1990
19.84	2027
19.85	2039
19.86	2060
19.87	2056
19.88	2091
19.89	2107
19.9	2116
19.91	2053
19.92	2017
19.93	2026
19.94	2062
19.95	2061
19.96	2003
19.97	1996
19.98	1988
19.99	2016
20.0	2038
20.01	2039
20.02	2054
20.03	2062
20.04	1997
20.05	2003
20.06	2049
20.07	2009
20.08	1985
20.09	1985
20.1	2011
20.11	1988
20.12	1976
20.13	1945
20.14	2001
20.15	2047
20.16	2020
20.17	2012
20.18	2008
20.19	2023
20.2	2046
20.21	2031
20.22	2038
20.23	2030
20.24	1990
20.25	1970
20.26	1968
20.27	1949
20.28	1975
20.29	2033
20.3	2036
20.31	2034
20.32	1976
20.33	1976
20.34	1980
20.35	1974
20.36	1978
20.37	1972
20.38	1958
20.39	1951
20.4	1982
20.41	1989
20.42	1982
20.43	1987
20.44	1993
20.45	1967
20.46	1958
20.47	2033
20.48	1993
20.49	2024
20.5	2015
20.51	1989
20.52	1991
20.53	1999
20.54	2017
20.55	1964
20.56	1975
20.57	1993
20.58	1961
20.59	1966
20.6	1988
20.61	1998
20.62	2015
20.63	1991
20.64	1992
20.65	1974
20.66	1962
20.67	1988
20.68	2025
20.69	1960
20.7	1970
20.71	1994
20.72	2058
20.73	2082
20.74	2115
20.75	2139
20.76	2200
20.77	2215
20.78	2214
20.79	2246
20.8	2295
20.81	2328
20.82	2272
20.83	2243
20.84	2316
20.85	2379
20.86	2366
20.87	2334
20.88	2295
20.89	2291
20.9	2275
20.91	2238
20.92	2163
20.93	2192
20.94	2232
20.95	2141
20.96	2142
20.97	2131
20.98	2152
20.99	2120
21.0	2103
21.01	2077
21.02	2094
21.03	2141
21.04	2133
21.05	2151
21.06	2148
21.07	2128
21.08	2084
21.09	2017
21.1	2025
21.11	2076
21.12	2079
21.13	2076
21.14	2075
21.15	2088
21.16	2058
21.17	2035
21.18	2049
21.19	2046
21.2	2080
21.21	2053
21.22	2050
21.23	2074
21.24	2007
21.25	2017
21.26	2041
21.27	2015
21.28	2022
21.29	2027
21.3	2006
21.31	2031
21.32	2064
21.33	2043
21.34	2030
21.35	2055
21.36	2044
21.37	1977
21.38	2040
21.39	2088
21.4	2034
21.41	2034
21.42	1992
21.43	2057
21.44	2064
21.45	2023
21.46	1985
21.47	1961
21.48	1964
21.49	1962
21.5	1971
21.51	2004
21.52	2005
21.53	2056
21.54	2046
21.55	2001
21.56	1958
21.57	2006
21.58	1987
21.59	2012
21.6	2045
21.61	2016
21.62	1974
21.63	1949
21.64	1979
21.65	1966
21.66	1969
21.67	1991
21.68	2044
21.69	2052
21.7	1998
21.71	1949
21.72	1914
21.73	2003
21.74	2003
21.75	1985
21.76	1964
21.77	2007
21.78	1977
21.79	1986
21.8	1977
21.81	2005
21.82	2031
21.83	1980
21.84	1973
21.85	1983
21.86	1946
21.87	1948
21.88	1973
21.89	1937
21.9	1953
21.91	1937
21.92	1910
21.93	1929
21.94	1966
21.95	1903
21.96	1888
21.97	1887
21.98	1873
21.99	1889
22.0	1903
22.01	1908
22.02	1905
22.03	1928
22.04	1911
22.05	1878
22.06	1874
22.07	1904
22.08	1939
22.09	1879
22.1	1816
22.11	1865
22.12	1931
22.13	1933
22.14	1899
22.15	1898
22.16	1865
22.17	1864
22.18	1810
22.19	1883
22.2	1885
22.21	1902
22.22	1897
22.23	1887
22.24	1845
22.25	1901
22.26	1882
22.27	1882
22.28	1831
22.29	1848
22.3	1902
22.31	1899
22.32	1838
22.33	1802
22.34	1838
22.35	1839
22.36	1815
22.37	1883
22.38	1869
22.39	1857
22.4	1812
22.41	1808
22.42	1874
22.43	1844
22.44	1883
22.45	1904
22.46	1834
22.47	1846
22.48	1833
22.49	1850
22.5	1787
22.51	1782
22.52	1852
22.53	1822
22.54	1838
22.55	1835
22.56	1853
22.57	1846
22.58	1831
22.59	1816
22.6	1786
22.61	1801
22.62	1830
22.63	1813
22.64	1889
22.65	1826
22.66	1757
22.67	1789
22.68	1834
22.69	1846
22.7	1789
22.71	1770
22.72	1788
22.73	1777
22.74	1746
22.75	1716
22.76	1779
22.77	1876
22.78	1784
22.79	1758
22.8	1717
22.81	1789
22.82	1843
22.83	1830
22.84	1774
22.85	1781
22.86	1817
22.87	1768
22.88	1805
22.89	1802
22.9	1802
22.91	1832
22.92	1794
22.93	1775
22.94	1752
22.95	1760
22.96	1779
22.97	1782
22.98	1762
22.99	1763
23.0	1777
23.01	1784
23.02	1723
23.03	1761
23.04	1805
23.05	1806
23.06	1805
23.07	1796
23.08	1758
23.09	1723
23.1	1756
23.11	1784
23.12	1798
23.13	1826
23.14	1771
23.15	1725
23.16	1770
23.17	1754
23.18	1755
23.19	1770
23.2	1784
23.21	1773
23.22	1745
23.23	1742
23.24	1766
23.25	1759
23.26	1810
23.27	1767
23.28	1724
23.29	1768
23.3	1797
23.31	1769
23.32	1761
23.33	1785
23.34	1789
23.35	1753
23.36	1711
23.37	1732
23.38	1720
23.39	1770
23.4	1812
23.41	1764
23.42	1786
23.43	1798
23.44	1734
23.45	1773
23.46	1776
23.47	1770
23.48	1720
23.49	1751
23.5	1770
23.51	1726
23.52	1727
23.53	1732
23.54	1755
23.55	1787
23.56	1732
23.57	1761
23.58	1752
23.59	1700
23.6	1736
23.61	1745
23.62	1714
23.63	1722
23.64	1745
23.65	1736
23.66	1751
23.67	1694
23.68	1723
23.69	1704
23.7	1658
23.71	1691
23.72	1667
23.73	1706
23.74	1701
23.75	1646
23.76	1660
23.77	1707
23.78	1730
23.79	1678
23.8	1679
23.81	1690
23.82	1712
23.83	1719
23.84	1698
23.85	1712
23.86	1753
23.87	1738
23.88	1724
23.89	1697
23.9	1713
23.91	1715
23.92	1721
23.93	1737
23.94	1728
23.95	1699
23.96	1659
23.97	1669
23.98	1710
23.99	1712
24.0	1685
24.01	1661
24.02	1671
24.03	1669
24.04	1719
24.05	1713
24.06	1729
24.07	1694
24.08	1664
24.09	1636
24.1	1659
24.11	1660
24.12	1709
24.13	1682
24.14	1696
24.15	1714
24.16	1731
24.17	1733
24.18	1708
24.19	1684
24.2	1688
24.21	1728
24.22	1694
24.23	1677
24.24	1720
24.25	1731
24.26	1702
24.27	1719
24.28	1699
24.29	1714
24.3	1713
24.31	1686
24.32	1695
24.33	1670
24.34	1709
24.35	1681
24.36	1696
24.37	1694
24.38	1720
24.39	1693
24.4	1681
24.41	1700
24.42	1672
24.43	1661
24.44	1674
24.45	1631
24.46	1626
24.47	1629
24.48	1588
24.49	1633
24.5	1688
24.51	1700
24.52	1638
24.53	1612
24.54	1634
24.55	1612
24.56	1662
24.57	1664
24.58	1597
24.59	1635
24.6	1623
24.61	1629
24.62	1671
24.63	1641
24.64	1644
24.65	1648
24.66	1634
24.67	1639
24.68	1668
24.69	1653
24.7	1646
24.71	1614
24.72	1624
24.73	1625
24.74	1635
24.75	1638
24.76	1608
24.77	1592
24.78	1636
24.79	1598
24.8	1642
24.81	1691
24.82	1638
24.83	1593
24.84	1605
24.85	1627
24.86	1614
24.87	1637
24.88	1646
24.89	1611
24.9	1579
24.91	1576
24.92	1603
24.93	1601
24.94	1584
24.95	1583
24.96	1617
24.97	1663
24.98	1601
24.99	1563
25.0	1625
25.01	1607
25.02	1592
25.03	1577
25.04	1565
25.05	1562
25.06	1593
25.07	1589
25.08	1597
25.09	1618
25.1	1614
25.11	1558
25.12	1541
25.13	1586
25.14	1556
25.15	1609
25.16	1657
25.17	1632
25.18	1614
25.19	1597
25.2	1621
25.21	1600
25.22	1574
25.23	1577
25.24	1567
25.25	1542
25.26	1555
25.27	1560
25.28	1532
25.29	1552
25.3	1579
25.31	1597
25.32	1603
25.33	1614
25.34	1555
25.35	1546
25.36	1578
25.37	1577
25.38	1563
25.39	1556
25.4	1546
25.41	1560
25.42	1562
25.43	1546
25.44	1549
25.45	1538
25.46	1520
25.47	1535
25.48	1543
25.49	1551
25.5	1546
25.51	1568
25.52	1588
25.53	1571
25.54	1544
25.55	1497
25.56	1544
25.57	1592
25.58	1552
25.59	1564
25.6	1570
25.61	1584
25.62	1559
25.63	1541
25.64	1520
25.65	1554
25.66	1595
25.67	1594
25.68	1549
25.69	1533
25.7	1578
25.71	1600
25.72	1585
25.73	1559
25.74	1530
25.75	1497
25.76	1502
25.77	1579
25.78	1616
25.79	1630
25.8	1634
25.81	1599
25.82	1568
25.83	1564
25.84	1564
25.85	1545
25.86	1533
25.87	1527
25.88	1492
25.89	1485
25.9	1510
25.91	1530
25.92	1532
25.93	1566
25.94	1550
25.95	1530
25.96	1542
25.97	1552
25.98	1536
25.99	1496
26.0	1488
26.01	1548
26.02	1556
26.03	1520
26.04	1507
26.05	1540
26.06	1546
26.07	1525
26.08	1523
26.09	1542
26.1	1557
26.11	1584
26.12	1555
26.13	1487
26.14	1498
26.15	1542
26.16	1562
26.17	1561
26.18	1553
26.19	1557
26.2	1574
26.21	1561
26.22	1533
26.23	1527
26.24	1505
26.25	1507
26.26	1500
26.27	1509
26.28	1515
26.29	1492
26.3	1479
26.31	1487
26.32	1498
26.33	1484
26.34	1480
26.35	1492
26.36	1508
26.37	1529
26.38	1516
26.39	1511
26.4	1531
26.41	1545
26.42	1559
26.43	1571
26.44	1559
26.45	1515
26.46	1504
26.47	1521
26.48	1528
26.49	1522
26.5	1516
26.51	1499
26.52	1481
26.53	1496
26.54	1522
26.55	1514
26.56	1488
26.57	1484
26.58	1502
26.59	1476
26.6	1471
26.61	1497
26.62	1481
26.63	1448
26.64	1499
26.65	1551
26.66	1519
26.67	1485
26.68	1499
26.69	1526
26.7	1523
26.71	1471
26.72	1455
26.73	1507
26.74	1540
26.75	1523
26.76	1491
26.77	1462
26.78	1431
26.79	1430
26.8	1466
26.81	1510
26.82	1511
26.83	1515
26.84	1524
26.85	1509
26.86	1487
26.87	1485
26.88	1485
26.89	1485
26.9	1494
26.91	1493
26.92	1487
26.93	1487
26.94	1492
26.95	1493
26.96	1495
26.97	1486
26.98	1472
26.99	1452
27.0	1462
27.01	1455
27.02	1425
27.03	1438
27.04	1444
27.05	1437
27.06	1419
27.07	1428
27.08	1462
27.09	1484
27.1	1513
27.11	1519
27.12	1499
27.13	1487
27.14	1495
27.15	1492
27.16	1456
27.17	1461
27.18	1478
27.19	1451
27.2	1433
27.21	1428
27.22	1440
27.23	1467
27.24	1474
27.25	1468
27.26	1462
27.27	1468
27.28	1489
27.29	1473
27.3	1443
27.31	1443
27.32	1454
27.33	1480
27.34	1465
27.35	1403
27.36	1408
27.37	1445
27.38	1448
27.39	1446
27.4	1448
27.41	1452
27.42	1454
27.43	1461
27.44	1479
27.45	1475
27.46	1448
27.47	1432
27.48	1429
27.49	1450
27.5	1445
27.51	1428
27.52	1439
27.53	1441
27.54	1442
27.55	1457
27.56	1452
27.57	1458
27.58	1490
27.59	1477
27.6	1448
27.61	1453
27.62	1459
27.63	1441
27.64	1429
27.65	1433
27.66	1422
27.67	1431
27.68	1461
27.69	1428
27.7	1406
27.71	1448
27.72	1447
27.73	1456
27.74	1473
27.75	1471
27.76	1459
27.77	1453
27.78	1460
27.79	1438
27.8	1436
27.81	1459
27.82	1441
27.83	1442
27.84	1492
27.85	1491
27.86	1449
27.87	1436
27.88	1441
27.89	1422
27.9	1444
27.91	1443
27.92	1419
27.93	1466
27.94	1463
27.95	1423
27.96	1408
27.97	1403
27.98	1428
27.99	1458
28.0	1478
28.01	1476
28.02	1476
28.03	1473
28.04	1433
28.05	1421
28.06	1414
28.07	1413
28.08	1433
28.09	1431
28.1	1419
28.11	1444
28.12	1467
28.13	1467
28.14	1468
28.15	1431
28.16	1426
28.17	1448
28.18	1437
28.19	1451
28.2	1449
28.21	1425
28.22	1421
28.23	1394
28.24	1386
28.25	1421
28.26	1423
28.27	1422
28.28	1430
28.29	1450
28.3	1445
28.31	1399
28.32	1357
28.33	1373
28.34	1421
28.35	1435
28.36	1433
28.37	1404
28.38	1413
28.39	1396
28.4	1377
28.41	1384
28.42	1377
28.43	1352
28.44	1355
28.45	1381
28.46	1403
28.47	1418
28.48	1402
28.49	1387
28.5	1393
28.51	1401
28.52	1412
28.53	1409
28.54	1436
28.55	1457
28.56	1418
28.57	1404
28.58	1422
28.59	1411
28.6	1413
28.61	1424
28.62	1380
28.63	1380
28.64	1427
28.65	1450
28.66	1438
28.67	1425
28.68	1388
28.69	1375
28.7	1406
28.71	1378
28.72	1361
28.73	1392
28.74	1397
28.75	1420
28.76	1436
28.77	1401
28.78	1368
28.79	1359
28.8	1367
28.81	1396
28.82	1387
28.83	1384
28.84	1379
28.85	1363
28.86	1355
28.87	1375
28.88	1384
28.89	1380
28.9	1382
28.91	1411
28.92	1425
28.93	1433
28.94	1425
28.95	1419
28.96	1406
28.97	1366
28.98	1375
28.99	1370
29.0	1358
29.01	1367
29.02	1340
29.03	1344
29.04	1343
29.05	1370
29.06	1362
29.07	1359
29.08	1356
29.09	1341
29.1	1355
29.11	1402
29.12	1444
29.13	1430
29.14	1379
29.15	1367
29.16	1375
29.17	1366
29.18	1346
29.19	1339
29.2	1372
29.21	1363
29.22	1366
29.23	1370
29.24	1387
29.25	1355
29.26	1351
29.27	1358
29.28	1360
29.29	1360
29.3	1351
29.31	1383
29.32	1416
29.33	1397
29.34	1365
29.35	1346
29.36	1352
29.37	1341
29.38	1363
29.39	1396
29.4	1392
29.41	1382
29.42	1388
29.43	1408
29.44	1405
29.45	1362
29.46	1350
29.47	1366
29.48	1355
29.49	1376
29.5	1362
29.51	1349
29.52	1371
29.53	1388
29.54	1396
29.55	1386
29.56	1367
29.57	1369
29.58	1364
29.59	1347
29.6	1341
29.61	1348
29.62	1359
29.63	1332
29.64	1315
29.65	1324
29.66	1331
29.67	1352
29.68	1373
29.69	1377
29.7	1358
29.71	1350
29.72	1321
29.73	1337
29.74	1334
29.75	1311
29.76	1335
29.77	1342
29.78	1348
29.79	1366
29.8	1379
29.81	1365
29.82	1318
29.83	1333
29.84	1353
29.85	1324
29.86	1328
29.87	1322
29.88	1336
29.89	1356
29.9	1363
29.91	1395
29.92	1344
29.93	1300
29.94	1344
29.95	1367
29.96	1357
29.97	1372
29.98	1387
29.99	1344
30.0	1323
30.01	1312
30.02	1297
30.03	1296
30.04	1298
30.05	1344
30.06	1310
30.07	1335
30.08	1331
30.09	1312
30.1	1311
30.11	1325
30.12	1351
30.13	1311
30.14	1302
30.15	1296
30.16	1304
30.17	1327
30.18	1329
30.19	1298
30.2	1310
30.21	1327
30.22	1329
30.23	1312
30.24	1342
30.25	1346
30.26	1326
30.27	1331
30.28	1320
30.29	1312
30.3	1293
30.31	1337
30.32	1356
30.33	1313
30.34	1270
30.35	1279
30.36	1347
30.37	1329
30.38	1306
30.39	1290
30.4	1299
30.41	1362
30.42	1362
30.43	1344
30.44	1313
30.45	1326
30.46	1347
30.47	1302
30.48	1300
30.49	1344
30.5	1331
30.51	1317
30.52	1354
30.53	1323
30.54	1354
30.55	1340
30.56	1334
30.57	1345
30.58	1320
30.59	1318
30.6	1332
30.61	1329
30.62	1320
30.63	1365
30.64	1364
30.65	1320
30.66	1340
30.67	1380
30.68	1332
30.69	1359
30.7	1364
30.71	1372
30.72	1382
30.73	1363
30.74	1348
30.75	1380
30.76	1371
30.77	1363
30.78	1376
30.79	1327
30.8	1296
30.81	1312
30.82	1309
30.83	1304
30.84	1298
30.85	1335
30.86	1320
30.87	1318
30.88	1343
30.89	1319
30.9	1318
30.91	1359
30.92	1329
30.93	1328
30.94	1335
30.95	1354
30.96	1327
30.97	1313
30.98	1260
30.99	1272
31.0	1278
31.01	1319
31.02	1332
31.03	1323
31.04	1301
31.05	1290
31.06	1278
31.07	1336
31.08	1338
31.09	1307
31.1	1281
31.11	1290
31.12	1285
31.13	1224
31.14	1234
31.15	1295
31.16	1295
31.17	1298
31.18	1335
31.19	1325
31.2	1305
31.21	1291
31.22	1299
31.23	1300
31.24	1305
31.25	1305
31.26	1307
31.27	1316
31.28	1283
31.29	1244
31.3	1298
31.31	1303
31.32	1265
31.33	1259
31.34	1276
31.35	1241
31.36	1216
31.37	1253
31.38	1261
31.39	1263
31.4	1247
31.41	1270
31.42	1313
31.43	1275
31.44	1309
31.45	1299
31.46	1277
31.47	1303
31.48	1327
31.49	1271
31.5	1282
31.51	1314
31.52	1306
31.53	1285
31.54	1271
31.55	1282
31.56	1286
31.57	1310
31.58	1332
31.59	1304
31.6	1299
31.61	1270
31.62	1256
31.63	1289
31.64	1247
31.65	1272
31.66	1307
31.67	1308
31.68	1286
31.69	1272
31.7	1244
31.71	1318
31.72	1310
31.73	1293
31.74	1293
31.75	1245
31.76	1232
31.77	1261
31.78	1259
31.79	1290
31.8	1261
31.81	1260
31.82	1296
31.83	1264
31.84	1272
31.85	1348
31.86	1352
31.87	1303
31.88	1275
31.89	1293
31.9	1286
31.91	1304
31.92	1357
31.93	1332
31.94	1305
31.95	1275
31.96	1318
31.97	1283
31.98	1292
31.99	1225
32.0	1225
32.01	1307
32.02	1293
32.03	1300
32.04	1300
32.05	1256
32.06	1270
32.07	1309
32.08	1290
32.09	1263
32.1	1241
32.11	1259
32.12	1276
32.13	1260
32.14	1289
32.15	1273
32.16	1252
32.17	1253
32.18	1238
32.19	1263
32.2	1279
32.21	1220
32.22	1238
32.23	1284
32.24	1283
32.25	1272
32.26	1265
32.27	1246
32.28	1268
32.29	1258
32.3	1255
32.31	1272
32.32	1283
32.33	1329
32.34	1260
32.35	1304
32.36	1278
32.37	1272
32.38	1272
32.39	1226
32.4	1279
32.41	1303
32.42	1286
32.43	1289
32.44	1296
32.45	1279
32.46	1260
32.47	1265
32.48	1266
32.49	1260
32.5	1234
32.51	1261
32.52	1248
32.53	1235
32.54	1259
32.55	1247
32.56	1250
32.57	1243
32.58	1241
32.59	1244
32.6	1247
32.61	1245
32.62	1279
32.63	1278
32.64	1262
32.65	1265
32.66	1301
32.67	1299
32.68	1289
32.69	1275
32.7	1256
32.71	1263
32.72	1299
32.73	1276
32.74	1260
32.75	1262
32.76	1278
32.77	1255
32.78	1263
32.79	1279
32.8	1300
32.81	1258
32.82	1271
32.83	1288
32.84	1265
32.85	1230
32.86	1256
32.87	1261
32.88	1261
32.89	1293
32.9	1284
32.91	1237
32.92	1265
32.93	1280
32.94	1295
32.95	1283
32.96	1297
32.97	1289
32.98	1305
32.99	1283
33.0	1257
33.01	1218
33.02	1238
33.03	1246
33.04	1287
33.05	1268
33.06	1218
33.07	1236
33.08	1275
33.09	1207
33.1	1170
33.11	1221
33.12	1223
33.13	1249
33.14	1256
33.15	1203
33.16	1190
33.17	1222
33.18	1238
33.19	1229
33.2	1234
33.21	1256
33.22	1223
33.23	1222
33.24	1260
33.25	1301
33.26	1293
33.27	1263
33.28	1253
33.29	1256
33.3	1271
33.31	1257
33.32	1231
33.33	1229
33.34	1239
33.35	1239
33.36	1237
33.37	1249
33.38	1231
33.39	1217
33.4	1190
33.41	1227
33.42	1224
33.43	1229
33.44	1273
33.45	1314
33.46	1279
33.47	1251
33.48	1229
33.49	1235
33.5	1259
33.51	1266
33.52	1232
33.53	1240
33.54	1231
33.55	1263
33.56	1248
33.57	1211
33.58	1201
33.59	1236
33.6	1245
33.61	1247
33.62	1252
33.63	1221
33.64	1196
33.65	1231
33.66	1250
33.67	1197
33.68	1210
33.69	1239
33.7	1232
33.71	1240
33.72	1254
33.73	1245
33.74	1236
33.75	1233
33.76	1256
33.77	1247
33.78	1231
33.79	1221
33.8	1224
33.81	1248
33.82	1248
33.83	1237
33.84	1249
33.85	1225
33.86	1219
33.87	1246
33.88	1242
33.89	1247
33.9	1248
33.91	1249
33.92	1223
33.93	1217
33.94	1209
33.95	1231
33.96	1233
33.97	1213
33.98	1253
33.99	1226
34.0	1225
34.01	1235
34.02	1208
34.03	1201
34.04	1224
34.05	1229
34.06	1258
34.07	1254
34.08	1204
34.09	1172
34.1	1182
34.11	1186
34.12	1170
34.13	1188
34.14	1220
34.15	1247
34.16	1244
34.17	1218
34.18	1226
34.19	1213
34.2	1227
34.21	1247
34.22	1241
34.23	1219
34.24	1213
34.25	1186
34.26	1174
34.27	1208
34.28	1204
34.29	1187
34.3	1203
34.31	1220
34.32	1212
34.33	1198
34.34	1201
34.35	1215
34.36	1215
34.37	1201
34.38	1219
34.39	1237
34.4	1211
34.41	1199
34.42	1240
34.43	1237
34.44	1220
34.45	1210
34.46	1221
34.47	1211
34.48	1236
34.49	1212
34.5	1199
34.51	1237
34.52	1243
34.53	1224
34.54	1218
34.55	1212
34.56	1215
34.57	1224
34.58	1221
34.59	1228
34.6	1251
34.61	1268
34.62	1273
34.63	1265
34.64	1229
34.65	1188
34.66	1180
34.67	1183
34.68	1180
34.69	1208
34.7	1223
34.71	1229
34.72	1219
34.73	1190
34.74	1150
34.75	1151
34.76	1205
34.77	1218
34.78	1193
34.79	1203
34.8	1222
34.81	1218
34.82	1212
34.83	1236
34.84	1235
34.85	1194
34.86	1189
34.87	1225
34.88	1225
34.89	1223
34.9	1206
34.91	1236
34.92	1261
34.93	1258
34.94	1282
34.95	1267
34.96	1263
34.97	1257
34.98	1237
34.99	1241
35.0	1225
35.01	1219
35.02	1239
35.03	1228
35.04	1218
35.05	1229
35.06	1219
35.07	1208
35.08	1194
35.09	1214
35.1	1238
35.11	1237
35.12	1235
35.13	1235
35.14	1243
35.15	1235
35.16	1221
35.17	1241
35.18	1235
35.19	1220
35.2	1218
35.21	1237
35.22	1247
35.23	1227
35.24	1202
35.25	1213
35.26	1228
35.27	1257
35.28	1271
35.29	1267
35.3	1259
35.31	1237
35.32	1212
35.33	1205
35.34	1211
35.35	1219
35.36	1240
35.37	1248
35.38	1227
35.39	1246
35.4	1244
35.41	1240
35.42	1284
35.43	1275
35.44	1258
35.45	1260
35.46	1236
35.47	1231
35.48	1237
35.49	1236
35.5	1237
35.51	1245
35.52	1246
35.53	1229
35.54	1237
35.55	1246
35.56	1246
35.57	1264
35.58	1255
35.59	1300
35.6	1293
35.61	1287
35.62	1310
35.63	1296
35.64	1269
35.65	1253
35.66	1264
35.67	1286
35.68	1287
35.69	1265
35.7	1268
35.71	1312
35.72	1328
35.73	1284
35.74	1290
35.75	1288
35.76	1275
35.77	1289
35.78	1301
35.79	1380
35.8	1412
35.81	1401
35.82	1419
35.83	1422
35.84	1379
35.85	1366
35.86	1406
35.87	1432
35.88	1434
35.89	1435
35.9	1452
35.91	1509
35.92	1561
35.93	1574
35.94	1586
35.95	1642
35.96	1683
35.97	1732
35.98	1809
35.99	1857
36.0	1921
36.01	2056
36.02	2216
36.03	2388
36.04	2571
36.05	2751
36.06	2930
36.07	3142
36.08	3403
36.09	3726
36.1	4020
36.11	4230
36.12	4413
36.13	4507
36.14	4478
36.15	4422
36.16	4339
36.17	4220
36.18	4122
36.19	4001
36.2	3830
36.21	3700
36.22	3604
36.23	3475
36.24	3277
36.25	3048
36.26	2885
36.27	2710
36.28	2517
36.29	2350
36.3	2186
36.31	2081
36.32	1973
36.33	1867
36.34	1812
36.35	1745
36.36	1668
36.37	1635
36.38	1618
36.39	1586
36.4	1550
36.41	1480
36.42	1443
36.43	1454
36.44	1441
36.45	1411
36.46	1387
36.47	1385
36.48	1369
36.49	1364
36.5	1383
36.51	1397
36.52	1375
36.53	1333
36.54	1321
36.55	1326
36.56	1331
36.57	1320
36.58	1297
36.59	1303
36.6	1306
36.61	1295
36.62	1328
36.63	1363
36.64	1342
36.65	1308
36.66	1323
36.67	1342
36.68	1316
36.69	1297
36.7	1323
36.71	1331
36.72	1316
36.73	1312
36.74	1323
36.75	1326
36.76	1318
36.77	1323
36.78	1332
36.79	1345
36.8	1340
36.81	1327
36.82	1357
36.83	1385
36.84	1368
36.85	1377
36.86	1404
36.87	1441
36.88	1488
36.89	1537
36.9	1594
36.91	1625
36.92	1661
36.93	1720
36.94	1774
36.95	1857
36.96	1960
36.97	2040
36.98	2147
36.99	2265
37.0	2342
37.01	2399
37.02	2485
37.03	2546
37.04	2533
37.05	2502
37.06	2480
37.07	2416
37.08	2356
37.09	2317
37.1	2261
37.11	2192
37.12	2142
37.13	2126
37.14	2096
37.15	2002
37.16	1891
37.17	1837
37.18	1776
37.19	1693
37.2	1611
37.21	1531
37.22	1442
37.23	1427
37.24	1442
37.25	1408
37.26	1369
37.27	1356
37.28	1359
37.29	1343
37.3	1297
37.31	1273
37.32	1276
37.33	1250
37.34	1257
37.35	1286
37.36	1309
37.37	1313
37.38	1314
37.39	1294
37.4	1252
37.41	1243
37.42	1250
37.43	1243
37.44	1251
37.45	1266
37.46	1253
37.47	1244
37.48	1228
37.49	1248
37.5	1284
37.51	1294
37.52	1312
37.53	1292
37.54	1258
37.55	1276
37.56	1280
37.57	1261
37.58	1264
37.59	1254
37.6	1266
37.61	1318
37.62	1314
37.63	1295
37.64	1319
37.65	1355
37.66	1365
37.67	1360
37.68	1413
37.69	1421
37.7	1435
37.71	1513
37.72	1555
37.73	1606
37.74	1701
37.75	1756
37.76	1835
37.77	1930
37.78	1983
37.79	2065
37.8	2116
37.81	2065
37.82	1994
37.83	1950
37.84	1928
37.85	1861
37.86	1790
37.87	1723
37.88	1739
37.89	1747
37.9	1747
37.91	1708
37.92	1662
37.93	1583
37.94	1539
37.95	1502
37.96	1438
37.97	1384
37.98	1386
37.99	1412
38.0	1387
38.01	1354
38.02	1335
38.03	1349
38.04	1342
38.05	1312
38.06	1292
38.07	1278
38.08	1263
38.09	1270
38.1	1266
38.11	1227
38.12	1204
38.13	1197
38.14	1198
38.15	1222
38.16	1227
38.17	1210
38.18	1215
38.19	1253
38.2	1246
38.21	1214
38.22	1206
38.23	1221
38.24	1262
38.25	1261
38.26	1211
38.27	1208
38.28	1196
38.29	1224
38.3	1257
38.31	1245
38.32	1220
38.33	1207
38.34	1206
38.35	1223
38.36	1212
38.37	1175
38.38	1187
38.39	1237
38.4	1249
38.41	1216
38.42	1199
38.43	1221
38.44	1232
38.45	1223
38.46	1225
38.47	1225
38.48	1207
38.49	1203
38.5	1196
38.51	1246
38.52	1253
38.53	1217
38.54	1229
38.55	1250
38.56	1260
38.57	1255
38.58	1257
38.59	1255
38.6	1270
38.61	1287
38.62	1311
38.63	1331
38.64	1305
38.65	1310
38.66	1323
38.67	1328
38.68	1354
38.69	1378
38.7	1369
38.71	1373
38.72	1344
38.73	1324
38.74	1351
38.75	1318
38.76	1266
38.77	1292
38.78	1301
38.79	1286
38.8	1297
38.81	1285
38.82	1262
38.83	1221
38.84	1218
38.85	1227
38.86	1208
38.87	1207
38.88	1207
38.89	1210
38.9	1208
38.91	1204
38.92	1226
38.93	1251
38.94	1227
38.95	1202
38.96	1217
38.97	1204
38.98	1226
38.99	1227
39.0	1225
39.01	1244
39.02	1246
39.03	1215
39.04	1180
39.05	1190
39.06	1184
39.07	1183
39.08	1196
39.09	1198
39.1	1201
39.11	1199
39.12	1186
39.13	1183
39.14	1187
39.15	1185
39.16	1220
39.17	1210
39.18	1197
39.19	1215
39.2	1224
39.21	1173
39.22	1169
39.23	1176
39.24	1166
39.25	1166
39.26	1166
39.27	1175
39.28	1185
39.29	1209
39.3	1209
39.31	1189
39.32	1215
39.33	1247
39.34	1242
39.35	1230
39.36	1228
39.37	1156
39.38	1184
39.39	1170
39.4	1189
39.41	1191
39.42	1182
39.43	1183
39.44	1166
39.45	1184
39.46	1219
39.47	1222
39.48	1178
39.49	1147
39.5	1165
39.51	1194
39.52	1177
39.53	1198
39.54	1201
39.55	1154
39.56	1160
39.57	1220
39.58	1193
39.59	1179
39.6	1207
39.61	1198
39.62	1168
39.63	1151
39.64	1175
39.65	1223
39.66	1190
39.67	1161
39.68	1158
39.69	1197
39.7	1176
39.71	1165
39.72	1172
39.73	1203
39.74	1196
39.75	1166
39.76	1185
39.77	1209
39.78	1203
39.79	1168
39.8	1172
39.81	1215
39.82	1192
39.83	1160
39.84	1194
39.85	1216
39.86	1187
39.87	1200
39.88	1213
39.89	1215
39.9	1204
39.91	1188
39.92	1212
39.93	1204
39.94	1219
39.95	1197
39.96	1197
39.97	1224
39.98	1185
39.99	1175
40.0	1155
40.01	1164
40.02	1179
40.03	1186
40.04	1158
40.05	1176
40.06	1171
40.07	1175
40.08	1224
40.09	1201
40.1	1203
40.11	1192
40.12	1173
40.13	1161
40.14	1146
40.15	1170
40.16	1168
40.17	1185
40.18	1173
40.19	1145
40.2	1149
40.21	1154
40.22	1205
40.23	1243
40.24	1253
40.25	1218
40.26	1202
40.27	1214
40.28	1206
40.29	1173
40.3	1152
40.31	1188
40.32	1198
40.33	1194
40.34	1223
40.35	1213
40.36	1207
40.37	1204
40.38	1194
40.39	1179
40.4	1214
40.41	1214
40.42	1194
40.43	1206
40.44	1225
40.45	1222
40.46	1137
40.47	1167
40.48	1186
40.49	1203
40.5	1228
40.51	1229
40.52	1211
40.53	1195
40.54	1157
40.55	1135
40.56	1188
40.57	1184
40.58	1201
40.59	1210
40.6	1191
40.61	1172
40.62	1200
40.63	1167
40.64	1163
40.65	1205
40.66	1182
40.67	1200
40.68	1219
40.69	1189
40.7	1193
40.71	1200
40.72	1157
40.73	1127
40.74	1159
40.75	1157
40.76	1178
40.77	1188
40.78	1134
40.79	1151
40.8	1221
40.81	1186
40.82	1197
40.83	1175
40.84	1221
40.85	1214
40.86	1160
40.87	1239
40.88	1238
40.89	1224
40.9	1181
40.91	1167
40.92	1179
40.93	1148
40.94	1182
40.95	1149
40.96	1147
40.97	1181
40.98	1163
40.99	1149
41.0	1160
41.01	1195
41.02	1167
41.03	1187
41.04	1215
41.05	1167
41.06	1158
41.07	1160
41.08	1192
41.09	1191
41.1	1184
41.11	1175
41.12	1171
41.13	1142
41.14	1162
41.15	1177
41.16	1138
41.17	1126
41.18	1170
41.19	1188
41.2	1194
41.21	1217
41.22	1211
41.23	1164
41.24	1168
41.25	1159
41.26	1189
41.27	1232
41.28	1157
41.29	1214
41.3	1180
41.31	1195
41.32	1201
41.33	1191
41.34	1199
41.35	1184
41.36	1205
41.37	1206
41.38	1164
41.39	1172
41.4	1204
41.41	1166
41.42	1144
41.43	1141
41.44	1153
41.45	1202
41.46	1195
41.47	1170
41.48	1183
41.49	1238
41.5	1214
41.51	1155
41.52	1165
41.53	1182
41.54	1185
41.55	1163
41.56	1151
41.57	1159
41.58	1168
41.59	1145
41.6	1169
41.61	1227
41.62	1224
41.63	1192
41.64	1191
41.65	1191
41.66	1204
41.67	1212
41.68	1189
41.69	1186
41.7	1176
41.71	1175
41.72	1201
41.73	1192
41.74	1186
41.75	1178
41.76	1150
41.77	1207
41.78	1188
41.79	1150
41.8	1169
41.81	1199
41.82	1161
41.83	1160
41.84	1171
41.85	1148
41.86	1142
41.87	1193
41.88	1166
41.89	1136
41.9	1172
41.91	1183
41.92	1141
41.93	1141
41.94	1166
41.95	1229
41.96	1195
41.97	1159
41.98	1195
41.99	1191
42.0	1168
42.01	1145
42.02	1208
42.03	1182
42.04	1167
42.05	1187
42.06	1202
42.07	1166
42.08	1146
42.09	1162
42.1	1177
42.11	1183
42.12	1172
42.13	1157
42.14	1192
42.15	1196
42.16	1156
42.17	1200
42.18	1256
42.19	1249
42.2	1219
42.21	1195
42.22	1183
42.23	1168
42.24	1174
42.25	1145
42.26	1167
42.27	1210
42.28	1206
42.29	1219
42.3	1201
42.31	1218
42.32	1214
42.33	1242
42.34	1217
42.35	1207
42.36	1247
42.37	1223
42.38	1276
42.39	1238
42.4	1228
42.41	1238
42.42	1238
42.43	1239
42.44	1220
42.45	1227
42.46	1260
42.47	1292
42.48	1254
42.49	1256
42.5	1230
42.51	1230
42.52	1278
42.53	1261
42.54	1254
42.55	1242
42.56	1264
42.57	1253
42.58	1242
42.59	1261
42.6	1232
42.61	1243
42.62	1230
42.63	1220
42.64	1241
42.65	1238
42.66	1245
42.67	1211
42.68	1216
42.69	1238
42.7	1255
42.71	1282
42.72	1243
42.73	1234
42.74	1278
42.75	1266
42.76	1252
42.77	1249
42.78	1241
42.79	1227
42.8	1230
42.81	1234
42.82	1230
42.83	1211
42.84	1201
42.85	1227
42.86	1204
42.87	1189
42.88	1234
42.89	1275
42.9	1258
42.91	1223
42.92	1232
42.93	1236
42.94	1226
42.95	1240
42.96	1276
42.97	1233
42.98	1204
42.99	1211
43.0	1186
43.01	1230
43.02	1211
43.03	1214
43.04	1210
43.05	1207
43.06	1205
43.07	1239
43.08	1259
43.09	1257
43.1	1214
43.11	1250
43.12	1270
43.13	1241
43.14	1268
43.15	1262
43.16	1261
43.17	1246
43.18	1269
43.19	1240
43.2	1269
43.21	1282
43.22	1274
43.23	1260
43.24	1254
43.25	1216
43.26	1238
43.27	1286
43.28	1313
43.29	1295
43.3	1275
43.31	1267
43.32	1256
43.33	1241
43.34	1261
43.35	1319
43.36	1273
43.37	1297
43.38	1323
43.39	1341
43.4	1303
43.41	1277
43.42	1311
43.43	1291
43.44	1277
43.45	1296
43.46	1321
43.47	1312
43.48	1287
43.49	1332
43.5	1375
43.51	1367
43.52	1423
43.53	1432
43.54	1403
43.55	1405
43.56	1461
43.57	1457
43.58	1465
43.59	1413
43.6	1433
43.61	1484
43.62	1501
43.63	1495
43.64	1551
43.65	1543
43.66	1524
43.67	1516
43.68	1587
43.69	1686
43.7	1750
43.71	1767
43.72	1802
43.73	1877
43.74	1950
43.75	1983
43.76	2019
43.77	2150
43.78	2256
43.79	2347
43.8	2481
43.81	2633
43.82	2770
43.83	2967
43.84	3144
43.85	3332
43.86	3558
43.87	3821
43.88	4016
43.89	4156
43.9	4418
43.91	4610
43.92	4652
43.93	4672
43.94	4699
43.95	4605
43.96	4489
43.97	4473
43.98	4437
43.99	4298
44.0	4139
44.01	4068
44.02	4039
44.03	3971
44.04	3799
44.05	3608
44.06	3448
44.07	3361
44.08	3223
44.09	3028
44.1	2871
44.11	2699
44.12	2575
44.13	2444
44.14	2331
44.15	2269
44.16	2221
44.17	2143
44.18	2041
44.19	2011
44.2	1980
44.21	1891
44.22	1823
44.23	1774
44.24	1760
44.25	1736
44.26	1756
44.27	1659
44.28	1632
44.29	1653
44.3	1654
44.31	1622
44.32	1619
44.33	1608
44.34	1599
44.35	1611
44.36	1605
44.37	1605
44.38	1590
44.39	1563
44.4	1583
44.41	1589
44.42	1543
44.43	1561
44.44	1610
44.45	1639
44.46	1633
44.47	1704
44.48	1735
44.49	1799
44.5	1818
44.51	1845
44.52	1859
44.53	1925
44.54	1954
44.55	2022
44.56	2163
44.57	2225
44.58	2273
44.59	2360
44.6	2466
44.61	2579
44.62	2796
44.63	2923
44.64	3080
44.65	3284
44.66	3362
44.67	3570
44.68	3779
44.69	3948
44.7	4139
44.71	4258
44.72	4420
44.73	4548
44.74	4660
44.75	4690
44.76	4785
44.77	4874
44.78	4879
44.79	4791
44.8	4673
44.81	4562
44.82	4435
44.83	4356
44.84	4230
44.85	4085
44.86	3912
44.87	3765
44.88	3662
44.89	3509
44.9	3342
44.91	3189
44.92	2994
44.93	2837
44.94	2742
44.95	2596
44.96	2449
44.97	2323
44.98	2219
44.99	2104
45.0	1987
45.01	1929
45.02	1883
45.03	1832
45.04	1776
45.05	1711
45.06	1689
45.07	1621
45.08	1577
45.09	1513
45.1	1540
45.11	1538
45.12	1482
45.13	1416
45.14	1395
45.15	1367
45.16	1355
45.17	1363
45.18	1398
45.19	1380
45.2	1390
45.21	1370
45.22	1351
45.23	1369
45.24	1362
45.25	1327
45.26	1305
45.27	1326
45.28	1327
45.29	1363
45.3	1310
45.31	1323
45.32	1322
45.33	1338
45.34	1328
45.35	1262
45.36	1303
45.37	1316
45.38	1311
45.39	1312
45.4	1284
45.41	1296
45.42	1301
45.43	1288
45.44	1246
45.45	1229
45.46	1225
45.47	1235
45.48	1238
45.49	1260
45.5	1272
45.51	1264
45.52	1265
45.53	1261
45.54	1249
45.55	1261
45.56	1259
45.57	1199
45.58	1201
45.59	1227
45.6	1251
45.61	1228
45.62	1213
45.63	1283
45.64	1290
45.65	1248
45.66	1219
45.67	1224
45.68	1220
45.69	1201
45.7	1204
45.71	1222
45.72	1210
45.73	1220
45.74	1248
45.75	1252
45.76	1252
45.77	1256
45.78	1264
45.79	1241
45.8	1267
45.81	1250
45.82	1219
45.83	1251
45.84	1248
45.85	1269
45.86	1297
45.87	1268
45.88	1251
45.89	1246
45.9	1232
45.91	1232
45.92	1253
45.93	1243
45.94	1270
45.95	1245
45.96	1233
45.97	1230
45.98	1254
45.99	1251
46.0	1240
46.01	1218
46.02	1215
46.03	1239
46.04	1243
46.05	1271
46.06	1252
46.07	1227
46.08	1205
46.09	1211
46.1	1203
46.11	1220
46.12	1213
46.13	1224
46.14	1251
46.15	1229
46.16	1238
46.17	1249
46.18	1251
46.19	1233
46.2	1251
46.21	1215
46.22	1188
46.23	1207
46.24	1230
46.25	1203
46.26	1182
46.27	1230
46.28	1250
46.29	1246
46.3	1244
46.31	1262
46.32	1246
46.33	1237
46.34	1257
46.35	1243
46.36	1243
46.37	1214
46.38	1204
46.39	1230
46.4	1256
46.41	1258
46.42	1225
46.43	1220
46.44	1257
46.45	1263
46.46	1257
46.47	1262
46.48	1254
46.49	1261
46.5	1269
46.51	1271
46.52	1256
46.53	1217
46.54	1216
46.55	1242
46.56	1229
46.57	1245
46.58	1238
46.59	1242
46.6	1269
46.61	1264
46.62	1210
46.63	1202
46.64	1214
46.65	1270
46.66	1271
46.67	1212
46.68	1218
46.69	1241
46.7	1250
46.71	1254
46.72	1224
46.73	1205
46.74	1237
46.75	1249
46.76	1235
46.77	1223
46.78	1235
46.79	1247
46.8	1238
46.81	1245
46.82	1235
46.83	1231
46.84	1208
46.85	1222
46.86	1219
46.87	1190
46.88	1194
46.89	1232
46.9	1269
46.91	1261
46.92	1249
46.93	1283
46.94	1283
46.95	1256
46.96	1224
46.97	1220
46.98	1208
46.99	1223
47.0	1237
47.01	1212
47.02	1228
47.03	1231
47.04	1199
47.05	1221
47.06	1227
47.07	1210
47.08	1212
47.09	1240
47.1	1246
47.11	1232
47.12	1243
47.13	1268
47.14	1254
47.15	1248
47.16	1210
47.17	1192
47.18	1199
47.19	1217
47.2	1231
47.21	1206
47.22	1193
47.23	1235
47.24	1276
47.25	1261
47.26	1215
47.27	1211
47.28	1224
47.29	1230
47.3	1241
47.31	1237
47.32	1210
47.33	1193
47.34	1192
47.35	1221
47.36	1260
47.37	1262
47.38	1207
47.39	1181
47.4	1228
47.41	1261
47.42	1265
47.43	1263
47.44	1248
47.45	1237
47.46	1205
47.47	1203
47.48	1228
47.49	1245
47.5	1234
47.51	1224
47.52	1202
47.53	1208
47.54	1238
47.55	1238
47.56	1230
47.57	1253
47.58	1251
47.59	1220
47.6	1246
47.61	1260
47.62	1265
47.63	1251
47.64	1249
47.65	1276
47.66	1276
47.67	1257
47.68	1213
47.69	1191
47.7	1209
47.71	1222
47.72	1235
47.73	1232
47.74	1253
47.75	1288
47.76	1295
47.77	1282
47.78	1276
47.79	1292
47.8	1284
47.81	1278
47.82	1284
47.83	1264
47.84	1243
47.85	1260
47.86	1243
47.87	1240
47.88	1246
47.89	1264
47.9	1295
47.91	1296
47.92	1292
47.93	1299
47.94	1315
47.95	1356
47.96	1392
47.97	1430
47.98	1437
47.99	1449
48.0	1484
48.01	1546
48.02	1600
48.03	1650
48.04	1705
48.05	1745
48.06	1833
48.07	1907
48.08	1939
48.09	1976
48.1	1991
48.11	1974
48.12	1960
48.13	1976
48.14	1935
48.15	1867
48.16	1812
48.17	1770
48.18	1776
48.19	1786
48.2	1759
48.21	1756
48.22	1786
48.23	1774
48.24	1684
48.25	1620
48.26	1575
48.27	1545
48.28	1526
48.29	1494
48.3	1463
48.31	1437
48.32	1410
48.33	1371
48.34	1364
48.35	1371
48.36	1357
48.37	1363
48.38	1358
48.39	1321
48.4	1279
48.41	1282
48.42	1322
48.43	1328
48.44	1328
48.45	1307
48.46	1277
48.47	1268
48.48	1270
48.49	1286
48.5	1304
48.51	1293
48.52	1285
48.53	1275
48.54	1268
48.55	1265
48.56	1280
48.57	1304
48.58	1294
48.59	1299
48.6	1299
48.61	1274
48.62	1271
48.63	1283
48.64	1304
48.65	1289
48.66	1274
48.67	1289
48.68	1281
48.69	1288
48.7	1316
48.71	1340
48.72	1324
48.73	1319
48.74	1333
48.75	1341
48.76	1333
48.77	1338
48.78	1363
48.79	1378
48.8	1398
48.81	1433
48.82	1470
48.83	1506
48.84	1500
48.85	1503
48.86	1539
48.87	1566
48.88	1603
48.89	1617
48.9	1611
48.91	1606
48.92	1598
48.93	1588
48.94	1589
48.95	1578
48.96	1546
48.97	1511
48.98	1491
48.99	1499
49.0	1497
49.01	1474
49.02	1480
49.03	1484
49.04	1454
49.05	1437
49.06	1431
49.07	1401
49.08	1392
49.09	1386
49.1	1358
49.11	1372
49.12	1397
49.13	1366
49.14	1329
49.15	1317
49.16	1319
49.17	1312
49.18	1293
49.19	1255
49.2	1239
49.21	1263
49.22	1272
49.23	1272
49.24	1263
49.25	1269
49.26	1291
49.27	1292
49.28	1275
49.29	1271
49.3	1276
49.31	1270
49.32	1281
49.33	1288
49.34	1270
49.35	1249
49.36	1221
49.37	1208
49.38	1233
49.39	1261
49.4	1235
49.41	1216
49.42	1244
49.43	1233
49.44	1202
49.45	1220
49.46	1238
49.47	1228
49.48	1235
49.49	1227
49.5	1206
49.51	1199
49.52	1195
49.53	1233
49.54	1241
49.55	1247
49.56	1294
49.57	1284
49.58	1232
49.59	1227
49.6	1234
49.61	1209
49.62	1200
49.63	1227
49.64	1243
49.65	1243
49.66	1232
49.67	1225
49.68	1236
49.69	1237
49.7	1236
49.71	1257
49.72	1295
49.73	1284
49.74	1228
49.75	1217
49.76	1228
49.77	1232
49.78	1237
49.79	1244
49.8	1243
49.81	1226
49.82	1225
49.83	1215
49.84	1229
49.85	1256
49.86	1263
49.87	1257
49.88	1244
49.89	1261
49.9	1278
49.91	1261
49.92	1250
49.93	1251
49.94	1247
49.95	1244
49.96	1255
49.97	1244
49.98	1227
49.99	1221
50.0	1222
50.01	1241
50.02	1247
50.03	1227
50.04	1230
50.05	1227
50.06	1229
50.07	1245
50.08	1235
50.09	1236
50.1	1243
50.11	1268
50.12	1283
50.13	1255
50.14	1218
50.15	1191
50.16	1198
50.17	1235
50.18	1275
50.19	1284
50.2	1266
50.21	1253
50.22	1259
50.23	1248
50.24	1244
50.25	1214
50.26	1174
50.27	1204
50.28	1228
50.29	1227
50.3	1234
50.31	1238
50.32	1257
50.33	1246
50.34	1204
50.35	1193
50.36	1203
50.37	1196
50.38	1193
50.39	1214
50.4	1237
50.41	1250
50.42	1250
50.43	1255
50.44	1260
50.45	1261
50.46	1260
50.47	1247
50.48	1219
50.49	1223
50.5	1234
50.51	1231
50.52	1230
50.53	1247
50.54	1278
50.55	1262
50.56	1227
50.57	1214
50.58	1208
50.59	1207
50.6	1209
50.61	1214
50.62	1222
50.63	1237
50.64	1233
50.65	1218
50.66	1224
50.67	1244
50.68	1235
50.69	1216
50.7	1230
50.71	1244
50.72	1253
50.73	1255
50.74	1232
50.75	1224
50.76	1244
50.77	1233
50.78	1203
50.79	1204
50.8	1217
50.81	1227
50.82	1254
50.83	1255
50.84	1248
50.85	1256
50.86	1249
50.87	1238
50.88	1210
50.89	1198
50.9	1232
50.91	1270
50.92	1273
50.93	1252
50.94	1246
50.95	1254
50.96	1252
50.97	1246
50.98	1240
50.99	1235
51.0	1206
51.01	1204
51.02	1224
51.03	1208
51.04	1219
51.05	1244
51.06	1230
51.07	1229
51.08	1265
51.09	1264
51.1	1231
51.11	1225
51.12	1238
51.13	1232
51.14	1242
51.15	1242
51.16	1215
51.17	1212
51.18	1235
51.19	1247
51.2	1237
51.21	1250
51.22	1261
51.23	1246
51.24	1242
51.25	1270
51.26	1260
51.27	1240
51.28	1236
51.29	1225
51.3	1218
51.31	1192
51.32	1197
51.33	1237
51.34	1278
51.35	1266
51.36	1227
51.37	1215
51.38	1229
51.39	1239
51.4	1238
51.41	1229
51.42	1254
51.43	1290
51.44	1299
51.45	1279
51.46	1245
51.47	1225
51.48	1216
51.49	1231
51.5	1236
51.51	1222
51.52	1233
51.53	1252
51.54	1258
51.55	1252
51.56	1245
51.57	1254
51.58	1237
51.59	1242
51.6	1259
51.61	1255
51.62	1267
51.63	1278
51.64	1265
51.65	1251
51.66	1240
51.67	1223
51.68	1217
51.69	1236
51.7	1243
51.71	1232
51.72	1218
51.73	1226
51.74	1256
51.75	1260
51.76	1235
51.77	1235
51.78	1250
51.79	1234
51.8	1222
51.81	1230
51.82	1228
51.83	1229
51.84	1265
51.85	1265
51.86	1234
51.87	1244
51.88	1270
51.89	1266
51.9	1255
51.91	1233
51.92	1200
51.93	1225
51.94	1239
51.95	1210
51.96	1217
51.97	1252
51.98	1246
51.99	1237
52.0	1235
52.01	1218
52.02	1231
52.03	1274
52.04	1275
52.05	1237
52.06	1203
52.07	1192
52.08	1229
52.09	1260
52.1	1243
52.11	1245
52.12	1246
52.13	1229
52.14	1223
52.15	1241
52.16	1275
52.17	1269
52.18	1264
52.19	1291
52.2	1287
52.21	1251
52.22	1240
52.23	1244
52.24	1220
52.25	1190
52.26	1204
52.27	1229
52.28	1227
52.29	1219
52.3	1234
52.31	1237
52.32	1241
52.33	1279
52.34	1269
52.35	1246
52.36	1242
52.37	1231
52.38	1228
52.39	1246
52.4	1281
52.41	1279
52.42	1271
52.43	1230
52.44	1198
52.45	1245
52.46	1288
52.47	1294
52.48	1284
52.49	1261
52.5	1250
52.51	1248
52.52	1210
52.53	1221
52.54	1247
52.55	1244
52.56	1264
52.57	1249
52.58	1234
52.59	1235
52.6	1238
52.61	1240
52.62	1240
52.63	1235
52.64	1251
52.65	1270
52.66	1266
52.67	1261
52.68	1250
52.69	1248
52.7	1273
52.71	1246
52.72	1229
52.73	1261
52.74	1268
52.75	1258
52.76	1263
52.77	1252
52.78	1236
52.79	1252
52.8	1283
52.81	1260
52.82	1243
52.83	1250
52.84	1250
52.85	1266
52.86	1270
52.87	1255
52.88	1266
52.89	1255
52.9	1252
52.91	1273
52.92	1293
52.93	1273
52.94	1227
52.95	1217
52.96	1211
52.97	1203
52.98	1248
52.99	1260
53.0	1253
53.01	1265
53.02	1275
53.03	1252
53.04	1249
53.05	1255
53.06	1237
53.07	1251
53.08	1279
53.09	1241
53.1	1216
53.11	1250
53.12	1249
53.13	1261
53.14	1290
53.15	1257
53.16	1251
53.17	1254
53.18	1232
53.19	1228
53.2	1233
53.21	1241
53.22	1253
53.23	1252
53.24	1232
53.25	1208
53.26	1231
53.27	1264
53.28	1260
53.29	1258
53.3	1234
53.31	1225
53.32	1255
53.33	1278
53.34	1282
53.35	1284
53.36	1262
53.37	1256
53.38	1265
53.39	1253
53.4	1245
53.41	1266
53.42	1275
53.43	1263
53.44	1247
53.45	1229
53.46	1238
53.47	1255
53.48	1267
53.49	1289
53.5	1300
53.51	1269
53.52	1265
53.53	1255
53.54	1249
53.55	1265
53.56	1242
53.57	1266
53.58	1288
53.59	1277
53.6	1301
53.61	1279
53.62	1275
53.63	1272
53.64	1271
53.65	1292
53.66	1273
53.67	1265
53.68	1296
53.69	1298
53.7	1278
53.71	1272
53.72	1265
53.73	1259
53.74	1236
53.75	1241
53.76	1268
53.77	1271
53.78	1242
53.79	1225
53.8	1231
53.81	1233
53.82	1257
53.83	1288
53.84	1314
53.85	1292
53.86	1284
53.87	1292
53.88	1304
53.89	1309
53.9	1288
53.91	1283
53.92	1271
53.93	1251
53.94	1247
53.95	1264
53.96	1263
53.97	1244
53.98	1266
53.99	1277
54.0	1281
54.01	1303
54.02	1297
54.03	1290
54.04	1296
54.05	1295
54.06	1325
54.07	1314
54.08	1271
54.09	1269
54.1	1290
54.11	1307
54.12	1304
54.13	1290
54.14	1265
54.15	1242
54.16	1242
54.17	1241
54.18	1256
54.19	1270
54.2	1256
54.21	1242
54.22	1263
54.23	1289
54.24	1267
54.25	1272
54.26	1286
54.27	1277
54.28	1253
54.29	1262
54.3	1277
54.31	1284
54.32	1287
54.33	1284
54.34	1271
54.35	1264
54.36	1279
54.37	1282
54.38	1255
54.39	1230
54.4	1211
54.41	1218
54.42	1243
54.43	1266
54.44	1283
54.45	1265
54.46	1248
54.47	1274
54.48	1293
54.49	1306
54.5	1326
54.51	1319
54.52	1301
54.53	1282
54.54	1289
54.55	1301
54.56	1278
54.57	1231
54.58	1242
54.59	1262
54.6	1247
54.61	1255
54.62	1256
54.63	1249
54.64	1248
54.65	1259
54.66	1260
54.67	1273
54.68	1273
54.69	1290
54.7	1325
54.71	1283
54.72	1234
54.73	1245
54.74	1271
54.75	1271
54.76	1253
54.77	1265
54.78	1286
54.79	1276
54.8	1280
54.81	1276
54.82	1257
54.83	1254
54.84	1263
54.85	1286
54.86	1300
54.87	1279
54.88	1296
54.89	1319
54.9	1293
54.91	1290
54.92	1289
54.93	1266
54.94	1234
54.95	1209
54.96	1231
54.97	1254
54.98	1252
54.99	1260
55.0	1277
55.01	1262
55.02	1249
55.03	1258
55.04	1301
55.05	1309
55.06	1284
55.07	1255
55.08	1280
55.09	1268
55.1	1287
55.11	1311
55.12	1309
55.13	1277
55.14	1251
55.15	1282
55.16	1299
55.17	1279
55.18	1284
55.19	1252
55.2	1221
55.21	1225
55.22	1241
55.23	1268
55.24	1310
55.25	1316
55.26	1296
55.27	1265
55.28	1297
55.29	1309
55.3	1265
55.31	1278
55.32	1270
55.33	1271
55.34	1284
55.35	1274
55.36	1281
55.37	1312
55.38	1319
55.39	1313
55.4	1309
55.41	1292
55.42	1287
55.43	1276
55.44	1258
55.45	1266
55.46	1293
55.47	1255
55.48	1231
55.49	1257
55.5	1292
55.51	1285
55.52	1296
55.53	1273
55.54	1280
55.55	1269
55.56	1262
55.57	1238
55.58	1235
55.59	1278
55.6	1302
55.61	1293
55.62	1299
55.63	1289
55.64	1262
55.65	1256
55.66	1251
55.67	1278
55.68	1274
55.69	1278
55.7	1263
55.71	1260
55.72	1276
55.73	1291
55.74	1253
55.75	1254
55.76	1276
55.77	1281
55.78	1289
55.79	1285
55.8	1269
55.81	1254
55.82	1301
55.83	1365
55.84	1348
55.85	1317
55.86	1274
55.87	1276
55.88	1273
55.89	1249
55.9	1271
55.91	1262
55.92	1282
55.93	1307
55.94	1295
55.95	1282
55.96	1284
55.97	1281
55.98	1324
55.99	1347
56.0	1337
56.01	1317
56.02	1313
56.03	1317
56.04	1300
56.05	1324
56.06	1327
56.07	1314
56.08	1334
56.09	1350
56.1	1313
56.11	1289
56.12	1298
56.13	1335
56.14	1343
56.15	1354
56.16	1368
56.17	1328
56.18	1289
56.19	1288
56.2	1300
56.21	1293
56.22	1313
56.23	1309
56.24	1304
56.25	1300
56.26	1285
56.27	1319
56.28	1337
56.29	1345
56.3	1326
56.31	1297
56.32	1299
56.33	1270
56.34	1275
56.35	1290
56.36	1318
56.37	1321
56.38	1357
56.39	1334
56.4	1335
56.41	1317
56.42	1315
56.43	1325
56.44	1277
56.45	1249
56.46	1280
56.47	1289
56.48	1288
56.49	1298
56.5	1288
56.51	1290
56.52	1285
56.53	1305
56.54	1305
56.55	1296
56.56	1298
56.57	1301
56.58	1308
56.59	1273
56.6	1308
56.61	1319
56.62	1312
56.63	1313
56.64	1322
56.65	1309
56.66	1331
56.67	1313
56.68	1294
56.69	1334
56.7	1337
56.71	1322
56.72	1321
56.73	1329
56.74	1340
56.75	1322
56.76	1322
56.77	1334
56.78	1339
56.79	1370
56.8	1361
56.81	1300
56.82	1282
56.83	1319
56.84	1326
56.85	1327
56.86	1335
56.87	1342
56.88	1336
56.89	1329
56.9	1325
56.91	1325
56.92	1343
56.93	1337
56.94	1377
56.95	1390
56.96	1393
56.97	1405
56.98	1392
56.99	1346
57.0	1375
57.01	1395
57.02	1393
57.03	1384
57.04	1372
57.05	1365
57.06	1402
57.07	1399
57.08	1373
57.09	1410
57.1	1385
57.11	1364
57.12	1394
57.13	1395
57.14	1396
57.15	1426
57.16	1421
57.17	1384
57.18	1394
57.19	1430
57.2	1444
57.21	1422
57.22	1408
57.23	1411
57.24	1431
57.25	1403
57.26	1385
57.27	1417
57.28	1405
57.29	1394
57.3	1377
57.31	1386
57.32	1401
57.33	1402
57.34	1397
57.35	1372
57.36	1394
57.37	1420
57.38	1431
57.39	1470
57.4	1459
57.41	1446
57.42	1381
57.43	1357
57.44	1381
57.45	1404
57.46	1397
57.47	1404
57.48	1424
57.49	1419
57.5	1428
57.51	1446
57.52	1403
57.53	1404
57.54	1442
57.55	1442
57.56	1440
57.57	1425
57.58	1411
57.59	1429
57.6	1385
57.61	1439
57.62	1429
57.63	1432
57.64	1400
57.65	1388
57.66	1386
57.67	1417
57.68	1443
57.69	1420
57.7	1399
57.71	1440
57.72	1477
57.73	1460
57.74	1442
57.75	1456
57.76	1465
57.77	1447
57.78	1474
57.79	1483
57.8	1492
57.81	1469
57.82	1449
57.83	1445
57.84	1504
57.85	1531
57.86	1537
57.87	1542
57.88	1540
57.89	1545
57.9	1545
57.91	1556
57.92	1604
57.93	1657
57.94	1689
57.95	1658
57.96	1663
57.97	1737
57.98	1790
57.99	1837
58.0	1847
58.01	1928
58.02	1963
58.03	1988
58.04	2089
58.05	2150
58.06	2249
58.07	2324
58.08	2418
58.09	2517
58.1	2550
58.11	2617
58.12	2645
58.13	2611
58.14	2569
58.15	2576
58.16	2542
58.17	2486
58.18	2416
58.19	2337
58.2	2366
58.21	2359
58.22	2309
58.23	2305
58.24	2317
58.25	2279
58.26	2294
58.27	2256
58.28	2224
58.29	2191
58.3	2161
58.31	2114
58.32	2104
58.33	2093
58.34	2026
58.35	1962
58.36	1910
58.37	1847
58.38	1794
58.39	1786
58.4	1778
58.41	1753
58.42	1678
58.43	1649
58.44	1687
58.45	1702
58.46	1644
58.47	1642
58.48	1640
58.49	1605
58.5	1591
58.51	1599
58.52	1626
58.53	1607
58.54	1569
58.55	1544
58.56	1511
58.57	1516
58.58	1535
58.59	1544
58.6	1533
58.61	1551
58.62	1547
58.63	1556
58.64	1562
58.65	1528
58.66	1515
58.67	1531
58.68	1590
58.69	1573
58.7	1576
58.71	1590
58.72	1622
58.73	1637
58.74	1656
58.75	1640
58.76	1663
58.77	1673
58.78	1646
58.79	1650
58.8	1694
58.81	1742
58.82	1755
58.83	1758
58.84	1800
58.85	1820
58.86	1824
58.87	1848
58.88	1848
58.89	1863
58.9	1830
58.91	1860
58.92	1868
58.93	1812
58.94	1881
58.95	1886
58.96	1855
58.97	1827
58.98	1828
58.99	1810
59.0	1774
59.01	1783
59.02	1815
59.03	1755
59.04	1731
59.05	1749
59.06	1746
59.07	1707
59.08	1646
59.09	1649
59.1	1628
59.11	1628
59.12	1642
59.13	1590
59.14	1562
59.15	1564
59.16	1564
59.17	1521
59.18	1477
59.19	1476
59.2	1496
59.21	1471
59.22	1465
59.23	1550
59.24	1538
59.25	1481
59.26	1456
59.27	1443
59.28	1430
59.29	1427
59.3	1389
59.31	1365
59.32	1401
59.33	1421
59.34	1349
59.35	1377
59.36	1398
59.37	1420
59.38	1421
59.39	1375
59.4	1381
59.41	1410
59.42	1407
59.43	1388
59.44	1398
59.45	1390
59.46	1417
59.47	1392
59.48	1356
59.49	1361
59.5	1381
59.51	1354
59.52	1356
59.53	1331
59.54	1353
59.55	1400
59.56	1406
59.57	1367
59.58	1342
59.59	1342
59.6	1352
59.61	1365
59.62	1386
59.63	1346
59.64	1321
59.65	1330
59.66	1369
59.67	1365
59.68	1361
59.69	1329
59.7	1318
59.71	1357
59.72	1359
59.73	1386
59.74	1415
59.75	1368
59.76	1390
59.77	1369
59.78	1360
59.79	1367
59.8	1377
59.81	1335
59.82	1307
59.83	1333
59.84	1378
59.85	1375
59.86	1366
59.87	1340
59.88	1342
59.89	1356
59.9	1350
59.91	1372
59.92	1358
59.93	1325
59.94	1320
59.95	1319
59.96	1310
59.97	1344
59.98	1362
59.99	1346
60.0	1377
60.01	1335
60.02	1328
60.03	1291
60.04	1295
60.05	1310
60.06	1350
60.07	1367
60.08	1347
60.09	1361
60.1	1359
60.11	1343
60.12	1328
60.13	1293
60.14	1334
60.15	1368
60.16	1377
60.17	1311
60.18	1317
60.19	1340
60.2	1366
60.21	1349
60.22	1352
60.23	1367
60.24	1375
60.25	1341
60.26	1337
60.27	1325
60.28	1319
60.29	1364
60.3	1343
60.31	1293
60.32	1327
60.33	1337
60.34	1366
60.35	1402
60.36	1360
60.37	1322
60.38	1321
60.39	1360
60.4	1378
60.41	1360
60.42	1355
60.43	1371
60.44	1346
60.45	1332
60.46	1330
60.47	1334
60.48	1333
60.49	1328
60.5	1302
60.51	1305
60.52	1347
60.53	1350
60.54	1339
60.55	1371
60.56	1366
60.57	1320
60.58	1319
60.59	1330
60.6	1351
60.61	1368
60.62	1354
60.63	1341
60.64	1335
60.65	1318
60.66	1342
60.67	1356
60.68	1356
60.69	1363
60.7	1360
60.71	1358
60.72	1382
60.73	1361
60.74	1366
60.75	1363
60.76	1330
60.77	1353
60.78	1332
60.79	1312
60.8	1312
60.81	1342
60.82	1329
60.83	1313
60.84	1322
60.85	1320
60.86	1349
60.87	1348
60.88	1330
60.89	1339
60.9	1368
60.91	1344
60.92	1322
60.93	1333
60.94	1328
60.95	1359
60.96	1361
60.97	1341
60.98	1333
60.99	1343
61.0	1342
61.01	1331
61.02	1322
61.03	1333
61.04	1348
61.05	1308
61.06	1332
61.07	1345
61.08	1330
61.09	1327
61.1	1329
61.11	1310
61.12	1325
61.13	1374
61.14	1388
61.15	1355
61.16	1351
61.17	1358
61.18	1302
61.19	1302
61.2	1292
61.21	1340
61.22	1338
61.23	1318
61.24	1331
61.25	1347
61.26	1341
61.27	1324
61.28	1313
61.29	1305
61.3	1324
61.31	1323
61.32	1343
61.33	1347
61.34	1309
61.35	1329
61.36	1310
61.37	1307
61.38	1337
61.39	1314
61.4	1341
61.41	1326
61.42	1331
61.43	1330
61.44	1353
61.45	1359
61.46	1320
61.47	1309
61.48	1317
61.49	1326
61.5	1345
61.51	1337
61.52	1337
61.53	1362
61.54	1389
61.55	1380
61.56	1357
61.57	1346
61.58	1360
61.59	1372
61.6	1357
61.61	1335
61.62	1299
61.63	1330
61.64	1349
61.65	1371
61.66	1363
61.67	1387
61.68	1357
61.69	1325
61.7	1349
61.71	1353
61.72	1369
61.73	1351
61.74	1334
61.75	1325
61.76	1310
61.77	1327
61.78	1301
61.79	1293
61.8	1351
61.81	1317
61.82	1344
61.83	1405
61.84	1374
61.85	1353
61.86	1376
61.87	1370
61.88	1334
61.89	1336
61.9	1342
61.91	1316
61.92	1337
61.93	1359
61.94	1349
61.95	1349
61.96	1340
61.97	1351
61.98	1311
61.99	1343
62.0	1374
62.01	1338
62.02	1340
62.03	1335
62.04	1328
62.05	1309
62.06	1327
62.07	1371
62.08	1363
62.09	1377
62.1	1375
62.11	1342
62.12	1332
62.13	1372
62.14	1388
62.15	1355
62.16	1373
62.17	1387
62.18	1370
62.19	1343
62.2	1362
62.21	1361
62.22	1342
62.23	1330
62.24	1305
62.25	1346
62.26	1366
62.27	1372
62.28	1386
62.29	1373
62.3	1369
62.31	1384
62.32	1373
62.33	1360
62.34	1370
62.35	1344
62.36	1374
62.37	1366
62.38	1411
62.39	1406
62.4	1390
62.41	1356
62.42	1381
62.43	1409
62.44	1360
62.45	1357
62.46	1381
62.47	1362
62.48	1384
62.49	1416
62.5	1413
62.51	1370
62.52	1356
62.53	1364
62.54	1392
62.55	1389
62.56	1359
62.57	1393
62.58	1416
62.59	1407
62.6	1412
62.61	1383
62.62	1343
62.63	1336
62.64	1389
62.65	1369
62.66	1393
62.67	1328
62.68	1340
62.69	1353
62.7	1339
62.71	1389
62.72	1409
62.73	1419
62.74	1395
62.75	1369
62.76	1334
62.77	1341
62.78	1360
62.79	1386
62.8	1375
62.81	1386
62.82	1386
62.83	1373
62.84	1393
62.85	1371
62.86	1398
62.87	1431
62.88	1403
62.89	1417
62.9	1372
62.91	1389
62.92	1372
62.93	1357
62.94	1358
62.95	1411
62.96	1366
62.97	1361
62.98	1348
62.99	1385
63.0	1343
63.01	1353
63.02	1405
63.03	1378
63.04	1365
63.05	1344
63.06	1390
63.07	1380
63.08	1398
63.09	1400
63.1	1378
63.11	1392
63.12	1410
63.13	1372
63.14	1388
63.15	1401
63.16	1453
63.17	1424
63.18	1373
63.19	1424
63.2	1424
63.21	1406
63.22	1405
63.23	1404
63.24	1424
63.25	1451
63.26	1412
63.27	1395
63.28	1410
63.29	1441
63.3	1456
63.31	1410
63.32	1394
63.33	1449
63.34	1399
63.35	1442
63.36	1497
63.37	1496
63.38	1517
63.39	1477
63.4	1442
63.41	1443
63.42	1513
63.43	1518
63.44	1481
63.45	1484
63.46	1487
63.47	1495
63.48	1493
63.49	1516
63.5	1539
63.51	1524
63.52	1576
63.53	1605
63.54	1516
63.55	1535
63.56	1577
63.57	1619
63.58	1613
63.59	1655
63.6	1607
63.61	1621
63.62	1651
63.63	1672
63.64	1707
63.65	1749
63.66	1772
63.67	1748
63.68	1778
63.69	1865
63.7	1936
63.71	1997
63.72	2073
63.73	2186
63.74	2293
63.75	2402
63.76	2478
63.77	2682
63.78	2918
63.79	3049
63.8	3175
63.81	3394
63.82	3474
63.83	3560
63.84	3648
63.85	3649
63.86	3687
63.87	3603
63.88	3461
63.89	3376
63.9	3240
63.91	3210
63.92	3149
63.93	3110
63.94	3061
63.95	2985
63.96	2925
63.97	2951
63.98	2990
63.99	3001
64.0	2996
64.01	2906
64.02	2887
64.03	2878
64.04	2791
64.05	2743
64.06	2644
64.07	2500
64.08	2404
64.09	2363
64.1	2264
64.11	2220
64.12	2111
64.13	2078
64.14	2067
64.15	1939
64.16	1888
64.17	1876
64.18	1880
64.19	1811
64.2	1823
64.21	1810
64.22	1755
64.23	1736
64.24	1680
64.25	1729
64.26	1691
64.27	1625
64.28	1668
64.29	1673
64.3	1656
64.31	1688
64.32	1664
64.33	1692
64.34	1720
64.35	1721
64.36	1700
64.37	1690
64.38	1754
64.39	1696
64.4	1684
64.41	1656
64.42	1745
64.43	1807
64.44	1844
64.45	1749
64.46	1736
64.47	1816
64.48	1837
64.49	1851
64.5	1905
64.51	1945
64.52	2051
64.53	2041
64.54	2077
64.55	2090
64.56	2112
64.57	2222
64.58	2200
64.59	2232
64.6	2286
64.61	2246
64.62	2258
64.63	2281
64.64	2240
64.65	2235
64.66	2226
64.67	2251
64.68	2321
64.69	2237
64.7	2162
64.71	2188
64.72	2226
64.73	2184
64.74	2148
64.75	2119
64.76	2088
64.77	2081
64.78	2093
64.79	2131
64.8	2084
64.81	2010
64.82	1984
64.83	1942
64.84	1913
64.85	1893
64.86	1915
64.87	1822
64.88	1760
64.89	1734
64.9	1721
64.91	1708
64.92	1659
64.93	1697
64.94	1663
64.95	1633
64.96	1662
64.97	1643
64.98	1606
64.99	1608
65.0	1588
65.01	1530
65.02	1516
65.03	1482
65.04	1490
65.05	1510
65.06	1552
65.07	1484
65.08	1471
65.09	1471
65.1	1491
65.11	1478
65.12	1476
65.13	1487
65.14	1466
65.15	1445
65.16	1466
65.17	1498
65.18	1463
65.19	1408
65.2	1442
65.21	1468
65.22	1480
65.23	1514
65.24	1486
65.25	1491
65.26	1466
65.27	1450
65.28	1484
65.29	1486
65.3	1531
65.31	1503
65.32	1467
65.33	1445
65.34	1489
65.35	1489
65.36	1522
65.37	1501
65.38	1511
65.39	1577
65.4	1601
65.41	1603
65.42	1570
65.43	1590
65.44	1604
65.45	1616
65.46	1707
65.47	1772
65.48	1764
65.49	1781
65.5	1844
65.51	1917
65.52	1935
65.53	1996
65.54	2107
65.55	2147
65.56	2238
65.57	2230
65.58	2265
65.59	2406
65.6	2482
65.61	2469
65.62	2431
65.63	2441
65.64	2428
65.65	2428
65.66	2358
65.67	2303
65.68	2268
65.69	2269
65.7	2198
65.71	2183
65.72	2166
65.73	2160
65.74	2143
65.75	2094
65.76	2045
65.77	2044
65.78	2088
65.79	2115
65.8	2065
65.81	1975
65.82	2010
65.83	1998
65.84	1922
65.85	1866
65.86	1851
65.87	1779
65.88	1732
65.89	1726
65.9	1681
65.91	1642
65.92	1588
65.93	1591
65.94	1611
65.95	1543
65.96	1547
65.97	1516
65.98	1478
65.99	1487
66.0	1535
66.01	1478
66.02	1466
66.03	1471
66.04	1473
66.05	1423
66.06	1487
66.07	1479
66.08	1451
66.09	1466
66.1	1451
66.11	1413
66.12	1422
66.13	1384
66.14	1395
66.15	1401
66.16	1384
66.17	1370
66.18	1371
66.19	1433
66.2	1467
66.21	1425
66.22	1407
66.23	1420
66.24	1406
66.25	1367
66.26	1302
66.27	1376
66.28	1363
66.29	1420
66.3	1393
66.31	1394
66.32	1429
66.33	1412
66.34	1398
66.35	1376
66.36	1366
66.37	1433
66.38	1447
66.39	1334
66.4	1413
66.41	1390
66.42	1321
66.43	1403
66.44	1411
66.45	1388
66.46	1378
66.47	1419
66.48	1380
66.49	1379
66.5	1379
66.51	1396
66.52	1375
66.53	1384
66.54	1380
66.55	1397
66.56	1353
66.57	1362
66.58	1349
66.59	1367
66.6	1422
66.61	1365
66.62	1354
66.63	1426
66.64	1435
66.65	1399
66.66	1427
66.67	1411
66.68	1442
66.69	1465
66.7	1385
66.71	1425
66.72	1430
66.73	1384
66.74	1410
66.75	1421
66.76	1439
66.77	1459
66.78	1434
66.79	1441
66.8	1460
66.81	1414
66.82	1406
66.83	1421
66.84	1429
66.85	1470
66.86	1456
66.87	1524
66.88	1439
66.89	1461
66.9	1505
66.91	1531
66.92	1478
66.93	1575
66.94	1624
66.95	1553
66.96	1558
66.97	1555
66.98	1561
66.99	1659
67.0	1715
67.01	1683
67.02	1717
67.03	1774
67.04	1808
67.05	1875
67.06	1923
67.07	1973
67.08	2021
67.09	2033
67.1	2136
67.11	2214
67.12	2299
67.13	2351
67.14	2371
67.15	2339
67.16	2307
67.17	2306
67.18	2293
67.19	2215
67.2	2195
67.21	2161
67.22	2136
67.23	2122
67.24	2097
67.25	2066
67.26	2131
67.27	2096
67.28	2051
67.29	2029
67.3	2060
67.31	2057
67.32	1974
67.33	1932
67.34	1969
67.35	1995
67.36	1978
67.37	1939
67.38	1850
67.39	1844
67.4	1862
67.41	1841
67.42	1766
67.43	1729
67.44	1711
67.45	1654
67.46	1643
67.47	1600
67.48	1596
67.49	1636
67.5	1547
67.51	1566
67.52	1551
67.53	1533
67.54	1540
67.55	1480
67.56	1509
67.57	1547
67.58	1519
67.59	1478
67.6	1437
67.61	1488
67.62	1482
67.63	1477
67.64	1486
67.65	1498
67.66	1432
67.67	1403
67.68	1452
67.69	1451
67.7	1410
67.71	1431
67.72	1465
67.73	1449
67.74	1465
67.75	1456
67.76	1413
67.77	1369
67.78	1389
67.79	1391
67.8	1364
67.81	1413
67.82	1467
67.83	1455
67.84	1367
67.85	1366
67.86	1421
67.87	1423
67.88	1365
67.89	1360
67.9	1384
67.91	1346
67.92	1376
67.93	1365
67.94	1375
67.95	1386
67.96	1400
67.97	1378
67.98	1331
67.99	1372
68.0	1467
68.01	1457
68.02	1441
68.03	1375
68.04	1438
68.05	1414
68.06	1428
68.07	1396
68.08	1402
68.09	1447
68.1	1409
68.11	1375
68.12	1386
68.13	1397
68.14	1391
68.15	1359
68.16	1388
68.17	1358
68.18	1384
68.19	1393
68.2	1338
68.21	1393
68.22	1425
68.23	1402
68.24	1424
68.25	1390
68.26	1374
68.27	1425
68.28	1446
68.29	1415
68.3	1392
68.31	1422
68.32	1403
68.33	1373
68.34	1360
68.35	1401
68.36	1405
68.37	1391
68.38	1395
68.39	1383
68.4	1429
68.41	1466
68.42	1446
68.43	1399
68.44	1383
68.45	1428
68.46	1475
68.47	1480
68.48	1493
68.49	1451
68.5	1390
68.51	1398
68.52	1438
68.53	1454
68.54	1474
68.55	1470
68.56	1443
68.57	1412
68.58	1442
68.59	1451
68.6	1425
68.61	1434
68.62	1483
68.63	1507
68.64	1461
68.65	1438
68.66	1464
68.67	1494
68.68	1485
68.69	1515
68.7	1563
68.71	1545
68.72	1524
68.73	1558
68.74	1603
68.75	1597
68.76	1616
68.77	1664
68.78	1633
68.79	1621
68.8	1712
68.81	1739
68.82	1730
68.83	1737
68.84	1712
68.85	1775
68.86	1817
68.87	1821
68.88	1796
68.89	1831
68.9	1862
68.91	1844
68.92	1867
68.93	1868
68.94	1883
68.95	1895
68.96	1860
68.97	1801
68.98	1726
68.99	1756
69.0	1781
69.01	1742
69.02	1758
69.03	1716
69.04	1751
69.05	1729
69.06	1765
69.07	1767
69.08	1731
69.09	1688
69.1	1683
69.11	1644
69.12	1650
69.13	1654
69.14	1646
69.15	1652
69.16	1644
69.17	1634
69.18	1655
69.19	1592
69.2	1581
69.21	1550
69.22	1514
69.23	1490
69.24	1527
69.25	1462
69.26	1482
69.27	1490
69.28	1472
69.29	1464
69.3	1479
69.31	1473
69.32	1449
69.33	1452
69.34	1399
69.35	1407
69.36	1417
69.37	1406
69.38	1412
69.39	1439
69.4	1427
69.41	1427
69.42	1466
69.43	1462
69.44	1428
69.45	1428
69.46	1392
69.47	1413
69.48	1451
69.49	1408
69.5	1394
69.51	1458
69.52	1397
69.53	1387
69.54	1389
69.55	1388
69.56	1396
69.57	1390
69.58	1396
69.59	1380
69.6	1406
69.61	1433
69.62	1360
69.63	1360
69.64	1339
69.65	1391
69.66	1363
69.67	1403
69.68	1429
69.69	1470
69.7	1372
69.71	1375
69.72	1394
69.73	1394
69.74	1412
69.75	1384
69.76	1385
69.77	1366
69.78	1375
69.79	1397
69.8	1388
69.81	1429
69.82	1407
69.83	1371
69.84	1339
69.85	1371
69.86	1348
69.87	1381
69.88	1396
69.89	1395
69.9	1392
69.91	1451
69.92	1395
69.93	1340
69.94	1382
69.95	1388
69.96	1369
69.97	1355
69.98	1348
69.99	1371
70.0	1410
70.01	1387
70.02	1408
70.03	1412
70.04	1411
70.05	1395
70.06	1346
70.07	1362
70.08	1427
70.09	1434
70.1	1439
70.11	1391
70.12	1382
70.13	1374
70.14	1414
70.15	1420
70.16	1426
70.17	1371
70.18	1394
70.19	1386
70.2	1378
70.21	1392
70.22	1433
70.23	1404
70.24	1376
70.25	1375
70.26	1384
70.27	1360
70.28	1354
70.29	1371
70.3	1342
70.31	1337
70.32	1339
70.33	1371
70.34	1358
70.35	1402
70.36	1438
70.37	1415
70.38	1401
70.39	1432
70.4	1393
70.41	1384
70.42	1409
70.43	1379
70.44	1360
70.45	1404
70.46	1443
70.47	1417
70.48	1366
70.49	1394
70.5	1392
70.51	1437
70.52	1441
70.53	1446
70.54	1383
70.55	1379
70.56	1405
70.57	1400
70.58	1391
70.59	1365
70.6	1395
70.61	1401
70.62	1422
70.63	1405
70.64	1375
70.65	1371
70.66	1362
70.67	1397
70.68	1439
70.69	1401
70.7	1429
70.71	1401
70.72	1357
70.73	1385
70.74	1380
70.75	1394
70.76	1421
70.77	1375
70.78	1379
70.79	1364
70.8	1381
70.81	1375
70.82	1377
70.83	1353
70.84	1379
70.85	1405
70.86	1391
70.87	1372
70.88	1358
70.89	1351
70.9	1371
70.91	1377
70.92	1361
70.93	1395
70.94	1404
70.95	1377
70.96	1420
70.97	1416
70.98	1422
70.99	1386
71.0	1411
71.01	1405
71.02	1429
71.03	1434
71.04	1369
71.05	1364
71.06	1386
71.07	1383
71.08	1377
71.09	1421
71.1	1404
71.11	1368
71.12	1391
71.13	1376
71.14	1347
71.15	1401
71.16	1402
71.17	1393
71.18	1378
71.19	1382
71.2	1364
71.21	1385
71.22	1395
71.23	1434
71.24	1420
71.25	1410
71.26	1404
71.27	1350
71.28	1350
71.29	1435
71.3	1425
71.31	1363
71.32	1377
71.33	1371
71.34	1394
71.35	1400
71.36	1420
71.37	1352
71.38	1365
71.39	1326
71.4	1337
71.41	1387
71.42	1408
71.43	1338
71.44	1343
71.45	1385
71.46	1378
71.47	1373
71.48	1363
71.49	1379
71.5	1405
71.51	1404
71.52	1398
71.53	1418
71.54	1427
71.55	1404
71.56	1376
71.57	1390
71.58	1380
71.59	1397
71.6	1386
71.61	1373
71.62	1393
71.63	1384
71.64	1373
71.65	1378
71.66	1383
71.67	1402
71.68	1378
71.69	1377
71.7	1366
71.71	1382
71.72	1389
71.73	1392
71.74	1399
71.75	1414
71.76	1420
71.77	1403
71.78	1383
71.79	1372
71.8	1376
71.81	1410
71.82	1408
71.83	1379
71.84	1385
71.85	1340
71.86	1348
71.87	1359
71.88	1357
71.89	1398
71.9	1382
71.91	1390
71.92	1362
71.93	1362
71.94	1340
71.95	1340
71.96	1365
71.97	1413
71.98	1407
71.99	1379
72.0	1331
72.01	1363
72.02	1423
72.03	1385
72.04	1420
72.05	1388
72.06	1398
72.07	1388
72.08	1367
72.09	1331
72.1	1367
72.11	1368
72.12	1374
72.13	1360
72.14	1369
72.15	1358
72.16	1367
72.17	1424
72.18	1373
72.19	1338
72.2	1391
72.21	1385
72.22	1367
72.23	1416
72.24	1345
72.25	1378
72.26	1396
72.27	1362
72.28	1341
72.29	1333
72.3	1368
72.31	1377
72.32	1372
72.33	1388
72.34	1401
72.35	1381
72.36	1389
72.37	1416
72.38	1383
72.39	1397
72.4	1416
72.41	1370
72.42	1391
72.43	1387
72.44	1344
72.45	1369
72.46	1393
72.47	1423
72.48	1403
72.49	1391
72.5	1399
72.51	1391
72.52	1408
72.53	1421
72.54	1442
72.55	1396
72.56	1407
72.57	1414
72.58	1403
72.59	1390
72.6	1388
72.61	1378
72.62	1350
72.63	1376
72.64	1372
72.65	1359
72.66	1374
72.67	1405
72.68	1342
72.69	1368
72.7	1347
72.71	1326
72.72	1403
72.73	1356
72.74	1351
72.75	1383
72.76	1415
72.77	1340
72.78	1352
72.79	1393
72.8	1392
72.81	1364
72.82	1361
72.83	1346
72.84	1385
72.85	1407
72.86	1437
72.87	1404
72.88	1420
72.89	1412
72.9	1387
72.91	1419
72.92	1425
72.93	1323
72.94	1369
72.95	1418
72.96	1411
72.97	1405
72.98	1401
72.99	1380
73.0	1374
73.01	1344
73.02	1357
73.03	1429
73.04	1449
73.05	1388
73.06	1405
73.07	1395
73.08	1368
73.09	1343
73.1	1379
73.11	1386
73.12	1403
73.13	1388
73.14	1366
73.15	1385
73.16	1389
73.17	1374
73.18	1391
73.19	1378
73.2	1371
73.21	1356
73.22	1339
73.23	1312
73.24	1417
73.25	1375
73.26	1371
73.27	1379
73.28	1366
73.29	1354
73.3	1349
73.31	1363
73.32	1453
73.33	1424
73.34	1329
73.35	1365
73.36	1388
73.37	1359
73.38	1377
73.39	1408
73.4	1383
73.41	1397
73.42	1435
73.43	1422
73.44	1412
73.45	1387
73.46	1368
73.47	1378
73.48	1363
73.49	1359
73.5	1365
73.51	1330
73.52	1376
73.53	1386
73.54	1361
73.55	1350
73.56	1415
73.57	1416
73.58	1365
73.59	1367
73.6	1385
73.61	1400
73.62	1373
73.63	1379
73.64	1420
73.65	1410
73.66	1356
73.67	1386
73.68	1378
73.69	1338
73.7	1354
73.71	1398
73.72	1373
73.73	1392
73.74	1382
73.75	1402
73.76	1407
73.77	1412
73.78	1399
73.79	1416
73.8	1427
73.81	1437
73.82	1444
73.83	1412
73.84	1397
73.85	1412
73.86	1408
73.87	1402
73.88	1411
73.89	1406
73.9	1354
73.91	1384
73.92	1396
73.93	1395
73.94	1387
73.95	1377
73.96	1379
73.97	1419
73.98	1412
73.99	1360
74.0	1334
74.01	1372
74.02	1382
74.03	1361
74.04	1329
74.05	1381
74.06	1397
74.07	1402
74.08	1450
74.09	1453
74.1	1431
74.11	1389
74.12	1387
74.13	1458
74.14	1407
74.15	1396
74.16	1412
74.17	1410
74.18	1417
74.19	1422
74.2	1336
74.21	1306
74.22	1342
74.23	1400
74.24	1415
74.25	1397
74.26	1393
74.27	1410
74.28	1407
74.29	1408
74.3	1414
74.31	1406
74.32	1390
74.33	1418
74.34	1392
74.35	1406
74.36	1426
74.37	1450
74.38	1382
74.39	1370
74.4	1387
74.41	1381
74.42	1389
74.43	1460
74.44	1422
74.45	1361
74.46	1361
74.47	1367
74.48	1380
74.49	1387
74.5	1378
74.51	1420
74.52	1370
74.53	1381
74.54	1392
74.55	1401
74.56	1387
74.57	1355
74.58	1392
74.59	1377
74.6	1381
74.61	1423
74.62	1436
74.63	1426
74.64	1397
74.65	1393
74.66	1402
74.67	1415
74.68	1418
74.69	1429
74.7	1431
74.71	1384
74.72	1352
74.73	1405
74.74	1396
74.75	1399
74.76	1380
74.77	1391
74.78	1389
74.79	1389
74.8	1405
74.81	1390
74.82	1401
74.83	1418
74.84	1419
74.85	1416
74.86	1410
74.87	1399
74.88	1410
74.89	1363
74.9	1388
74.91	1440
74.92	1399
74.93	1400
74.94	1363
74.95	1366
74.96	1361
74.97	1377
74.98	1408
74.99	1451
75.0	1421
75.01	1399
75.02	1390
75.03	1393
75.04	1403
75.05	1398
75.06	1430
75.07	1403
75.08	1372
75.09	1393
75.1	1389
75.11	1442
75.12	1457
75.13	1426
75.14	1363
75.15	1424
75.16	1451
75.17	1429
75.18	1433
75.19	1466
75.2	1436
75.21	1394
75.22	1414
75.23	1394
75.24	1363
75.25	1383
75.26	1450
75.27	1454
75.28	1424
75.29	1419
75.3	1421
75.31	1402
75.32	1418
75.33	1409
75.34	1386
75.35	1427
75.36	1471
75.37	1425
75.38	1446
75.39	1418
75.4	1460
75.41	1447
75.42	1438
75.43	1412
75.44	1473
75.45	1506
75.46	1477
75.47	1499
75.48	1491
75.49	1515
75.5	1508
75.51	1579
75.52	1648
75.53	1629
75.54	1661
75.55	1694
75.56	1692
75.57	1741
75.58	1762
75.59	1746
75.6	1752
75.61	1709
75.62	1709
75.63	1675
75.64	1672
75.65	1688
75.66	1679
75.67	1649
75.68	1629
75.69	1595
75.7	1569
75.71	1648
75.72	1637
75.73	1577
75.74	1588
75.75	1624
75.76	1594
75.77	1576
75.78	1576
75.79	1554
75.8	1547
75.81	1578
75.82	1582
75.83	1576
75.84	1572
75.85	1613
75.86	1575
75.87	1554
75.88	1539
75.89	1486
75.9	1520
75.91	1496
75.92	1510
75.93	1509
75.94	1505
75.95	1464
75.96	1450
75.97	1442
75.98	1447
75.99	1466
76.0	1438
76.01	1457
76.02	1447
76.03	1481
76.04	1455
76.05	1481
76.06	1455
76.07	1450
76.08	1447
76.09	1453
76.1	1499
76.11	1460
76.12	1451
76.13	1441
76.14	1445
76.15	1451
76.16	1403
76.17	1387
76.18	1394
76.19	1440
76.2	1480
76.21	1480
76.22	1459
76.23	1417
76.24	1398
76.25	1426
76.26	1446
76.27	1471
76.28	1453
76.29	1433
76.3	1429
76.31	1478
76.32	1418
76.33	1415
76.34	1444
76.35	1456
76.36	1465
76.37	1450
76.38	1499
76.39	1531
76.4	1472
76.41	1500
76.42	1463
76.43	1453
76.44	1446
76.45	1498
76.46	1542
76.47	1535
76.48	1551
76.49	1574
76.5	1596
76.51	1578
76.52	1582
76.53	1571
76.54	1643
76.55	1704
76.56	1737
76.57	1744
76.58	1827
76.59	1799
76.6	1823
76.61	1762
76.62	1772
76.63	1815
76.64	1808
76.65	1768
76.66	1729
76.67	1748
76.68	1748
76.69	1732
76.7	1683
76.71	1723
76.72	1703
76.73	1720
76.74	1667
76.75	1675
76.76	1699
76.77	1678
76.78	1620
76.79	1651
76.8	1676
76.81	1699
76.82	1695
76.83	1660
76.84	1727
76.85	1699
76.86	1731
76.87	1629
76.88	1614
76.89	1653
76.9	1616
76.91	1563
76.92	1552
76.93	1545
76.94	1539
76.95	1539
76.96	1504
76.97	1519
76.98	1552
76.99	1517
77.0	1481
77.01	1478
77.02	1477
77.03	1470
77.04	1456
77.05	1495
77.06	1500
77.07	1497
77.08	1516
77.09	1462
77.1	1480
77.11	1458
77.12	1432
77.13	1441
77.14	1416
77.15	1410
77.16	1434
77.17	1444
77.18	1453
77.19	1428
77.2	1419
77.21	1425
77.22	1426
77.23	1409
77.24	1427
77.25	1444
77.26	1467
77.27	1411
77.28	1385
77.29	1450
77.3	1501
77.31	1444
77.32	1465
77.33	1466
77.34	1466
77.35	1460
77.36	1445
77.37	1438
77.38	1428
77.39	1492
77.4	1498
77.41	1472
77.42	1446
77.43	1454
77.44	1513
77.45	1511
77.46	1466
77.47	1443
77.48	1420
77.49	1397
77.5	1440
77.51	1460
77.52	1427
77.53	1410
77.54	1447
77.55	1449
77.56	1524
77.57	1492
77.58	1452
77.59	1432
77.6	1456
77.61	1446
77.62	1473
77.63	1515
77.64	1483
77.65	1455
77.66	1452
77.67	1451
77.68	1489
77.69	1482
77.7	1499
77.71	1463
77.72	1479
77.73	1506
77.74	1528
77.75	1577
77.76	1555
77.77	1562
77.78	1557
77.79	1579
77.8	1553
77.81	1575
77.82	1587
77.83	1538
77.84	1492
77.85	1487
77.86	1497
77.87	1535
77.88	1565
77.89	1511
77.9	1522
77.91	1543
77.92	1508
77.93	1483
77.94	1469
77.95	1495
77.96	1483
77.97	1490
77.98	1507
77.99	1489
78.0	1517
78.01	1477
78.02	1473
78.03	1497
78.04	1476
78.05	1469
78.06	1447
78.07	1472
78.08	1546
78.09	1507
78.1	1469
78.11	1432
78.12	1446
78.13	1441
78.14	1451
78.15	1418
78.16	1399
78.17	1466
78.18	1420
78.19	1450
78.2	1469
78.21	1486
78.22	1471
78.23	1485
78.24	1525
78.25	1485
78.26	1456
78.27	1461
78.28	1507
78.29	1513
78.3	1468
78.31	1483
78.32	1489
78.33	1473
78.34	1440
78.35	1453
78.36	1465
78.37	1482
78.38	1494
78.39	1492
78.4	1460
78.41	1481
78.42	1478
78.43	1454
78.44	1447
78.45	1462
78.46	1490
78.47	1487
78.48	1489
78.49	1470
78.5	1442
78.51	1454
78.52	1471
78.53	1466
78.54	1467
78.55	1407
78.56	1463
78.57	1433
78.58	1414
78.59	1438
78.6	1453
78.61	1464
78.62	1449
78.63	1434
78.64	1443
78.65	1465
78.66	1455
78.67	1459
78.68	1490
78.69	1480
78.7	1477
78.71	1479
78.72	1417
78.73	1425
78.74	1437
78.75	1475
78.76	1451
78.77	1471
78.78	1506
78.79	1428
78.8	1444
78.81	1435
78.82	1452
78.83	1479
78.84	1476
78.85	1464
78.86	1444
78.87	1487
78.88	1488
78.89	1460
78.9	1465
78.91	1441
78.92	1396
78.93	1418
78.94	1406
78.95	1457
78.96	1475
78.97	1443
78.98	1434
78.99	1417
79.0	1455
79.01	1446
79.02	1382
79.03	1390
79.04	1400
79.05	1416
79.06	1406
79.07	1401
79.08	1389
79.09	1366
79.1	1418
79.11	1438
79.12	1412
79.13	1437
79.14	1462
79.15	1454
79.16	1441
79.17	1445
79.18	1437
79.19	1384
79.2	1400
79.21	1401
79.22	1396
79.23	1389
79.24	1387
79.25	1427
79.26	1396
79.27	1389
79.28	1425
79.29	1437
79.3	1438
79.31	1432
79.32	1415
79.33	1428
79.34	1413
79.35	1399
79.36	1383
79.37	1402
79.38	1399
79.39	1425
79.4	1382
79.41	1402
79.42	1427
79.43	1416
79.44	1445
79.45	1460
79.46	1448
79.47	1425
79.48	1383
79.49	1365
79.5	1399
79.51	1422
79.52	1385
79.53	1401
79.54	1402
79.55	1389
79.56	1387
79.57	1406
79.58	1436
79.59	1401
79.6	1425
79.61	1419
79.62	1385
79.63	1413
79.64	1382
79.65	1424
79.66	1395
79.67	1360
79.68	1359
79.69	1378
79.7	1386
79.71	1427
79.72	1403
79.73	1396
79.74	1411
79.75	1418
79.76	1374
79.77	1358
79.78	1371
79.79	1387
79.8	1428
79.81	1397
79.82	1364
79.83	1326
79.84	1388
79.85	1396
79.86	1389
79.87	1436
79.88	1403
79.89	1405
79.9	1366
79.91	1357
79.92	1390
79.93	1394
79.94	1415
79.95	1405
79.96	1397
79.97	1413
79.98	1382
79.99	1402
80.0	1409
80.01	1463
80.02	1422
80.03	1358
80.04	1391
80.05	1368
80.06	1330
80.07	1386
80.08	1423
80.09	1394
80.1	1392
80.11	1355
80.12	1383
80.13	1366
80.14	1411
80.15	1417
80.16	1431
80.17	1399
80.18	1394
80.19	1395
80.2	1381
80.21	1398
80.22	1393
80.23	1479
80.24	1429
80.25	1447
80.26	1360
80.27	1417
80.28	1431
80.29	1437
80.3	1429
80.31	1429
80.32	1427
80.33	1410
80.34	1418
80.35	1416
80.36	1441
80.37	1447
80.38	1431
80.39	1433
80.4	1454
80.41	1460
80.42	1447
80.43	1413
80.44	1389
80.45	1425
80.46	1460
80.47	1438
80.48	1436
80.49	1498
80.5	1507
80.51	1463
80.52	1486
80.53	1552
80.54	1531
80.55	1519
80.56	1565
80.57	1551
80.58	1588
80.59	1581
80.6	1627
80.61	1697
80.62	1742
80.63	1756
80.64	1786
80.65	1854
80.66	1927
80.67	1910
80.68	1964
80.69	2051
80.7	2071
80.71	2049
80.72	2063
80.73	2039
80.74	1970
80.75	1958
80.76	1903
80.77	1867
80.78	1874
80.79	1803
80.8	1755
80.81	1736
80.82	1722
80.83	1779
80.84	1786
80.85	1776
80.86	1746
80.87	1777
80.88	1784
80.89	1761
80.9	1754
80.91	1783
80.92	1873
80.93	1855
80.94	1831
80.95	1881
80.96	1868
80.97	1836
80.98	1798
80.99	1765
81.0	1762
81.01	1762
81.02	1740
81.03	1713
81.04	1700
81.05	1724
81.06	1698
81.07	1706
81.08	1667
81.09	1642
81.1	1642
81.11	1616
81.12	1612
81.13	1576
81.14	1580
81.15	1595
81.16	1597
81.17	1620
81.18	1605
81.19	1567
81.2	1518
81.21	1573
81.22	1529
81.23	1522
81.24	1562
81.25	1603
81.26	1558
81.27	1585
81.28	1572
81.29	1548
81.3	1555
81.31	1530
81.32	1564
81.33	1567
81.34	1580
81.35	1531
81.36	1519
81.37	1510
81.38	1537
81.39	1545
81.4	1524
81.41	1494
81.42	1500
81.43	1543
81.44	1514
81.45	1523
81.46	1575
81.47	1550
81.48	1487
81.49	1482
81.5	1492
81.51	1484
81.52	1506
81.53	1522
81.54	1466
81.55	1496
81.56	1513
81.57	1466
81.58	1498
81.59	1477
81.6	1511
81.61	1502
81.62	1509
81.63	1483
81.64	1469
81.65	1507
81.66	1501
81.67	1457
81.68	1452
81.69	1478
81.7	1450
81.71	1431
81.72	1470
81.73	1442
81.74	1425
81.75	1441
81.76	1471
81.77	1432
81.78	1423
81.79	1428
81.8	1432
81.81	1470
81.82	1477
81.83	1449
81.84	1480
81.85	1466
81.86	1394
81.87	1427
81.88	1423
81.89	1400
81.9	1415
81.91	1457
81.92	1429
81.93	1463
81.94	1460
81.95	1455
81.96	1452
81.97	1457
81.98	1471
81.99	1489
82.0	1480
82.01	1484
82.02	1441
82.03	1440
82.04	1449
82.05	1461
82.06	1452
82.07	1439
82.08	1438
82.09	1473
82.1	1442
82.11	1458
82.12	1451
82.13	1409
82.14	1409
82.15	1422
82.16	1418
82.17	1426
82.18	1493
82.19	1445
82.2	1475
82.21	1415
82.22	1422
82.23	1402
82.24	1430
82.25	1431
82.26	1399
82.27	1407
82.28	1392
82.29	1422
82.3	1460
82.31	1424
82.32	1435
82.33	1444
82.34	1461
82.35	1444
82.36	1360
82.37	1440
82.38	1475
82.39	1447
82.4	1456
82.41	1467
82.42	1423
82.43	1439
82.44	1457
82.45	1441
82.46	1456
82.47	1471
82.48	1477
82.49	1481
82.5	1459
82.51	1428
82.52	1442
82.53	1465
82.54	1465
82.55	1496
82.56	1511
82.57	1463
82.58	1473
82.59	1472
82.6	1488
82.61	1488
82.62	1496
82.63	1502
82.64	1511
82.65	1518
82.66	1575
82.67	1563
82.68	1540
82.69	1602
82.7	1586
82.71	1517
82.72	1536
82.73	1581
82.74	1614
82.75	1626
82.76	1619
82.77	1586
82.78	1634
82.79	1710
82.8	1722
82.81	1680
82.82	1705
82.83	1683
82.84	1722
82.85	1806
82.86	1801
82.87	1769
82.88	1740
82.89	1798
82.9	1862
82.91	1785
82.92	1778
82.93	1794
82.94	1771
82.95	1811
82.96	1775
82.97	1754
82.98	1767
82.99	1753
83.0	1775
83.01	1726
83.02	1711
83.03	1710
83.04	1754
83.05	1734
83.06	1691
83.07	1688
83.08	1756
83.09	1721
83.1	1685
83.11	1647
83.12	1672
83.13	1703
83.14	1667
83.15	1669
83.16	1675
83.17	1650
83.18	1666
83.19	1706
83.2	1660
83.21	1622
83.22	1657
83.23	1638
83.24	1668
83.25	1600
83.26	1536
83.27	1570
83.28	1514
83.29	1509
83.3	1535
83.31	1551
83.32	1538
83.33	1566
83.34	1551
83.35	1522
83.36	1516
83.37	1548
83.38	1546
83.39	1517
83.4	1526
83.41	1548
83.42	1527
83.43	1520
83.44	1466
83.45	1472
83.46	1515
83.47	1548
83.48	1525
83.49	1510
83.5	1523
83.51	1494
83.52	1511
83.53	1507
83.54	1509
83.55	1479
83.56	1557
83.57	1575
83.58	1564
83.59	1580
83.6	1583
83.61	1572
83.62	1583
83.63	1643
83.64	1650
83.65	1689
83.66	1675
83.67	1719
83.68	1720
83.69	1761
83.7	1826
83.71	1791
83.72	1817
83.73	1807
83.74	1820
83.75	1836
83.76	1785
83.77	1778
83.78	1782
83.79	1775
83.8	1771
83.81	1758
83.82	1755
83.83	1689
83.84	1710
83.85	1710
83.86	1701
83.87	1727
83.88	1700
83.89	1696
83.9	1690
83.91	1690
83.92	1697
83.93	1691
83.94	1712
83.95	1701
83.96	1685
83.97	1723
83.98	1729
83.99	1721
84.0	1679
84.01	1678
84.02	1714
84.03	1688
84.04	1646
84.05	1632
84.06	1620
84.07	1601
84.08	1555
84.09	1591
84.1	1560
84.11	1542
84.12	1577
84.13	1587
84.14	1586
84.15	1542
84.16	1501
84.17	1506
84.18	1519
84.19	1535
84.2	1510
84.21	1524
84.22	1498
84.23	1511
84.24	1489
84.25	1502
84.26	1463
84.27	1464
84.28	1484
84.29	1514
84.3	1508
84.31	1501
84.32	1517
84.33	1475
84.34	1501
84.35	1541
84.36	1546
84.37	1529
84.38	1517
84.39	1544
84.4	1548
84.41	1539
84.42	1563
84.43	1572
84.44	1549
84.45	1515
84.46	1528
84.47	1557
84.48	1550
84.49	1564
84.5	1546
84.51	1529
84.52	1507
84.53	1557
84.54	1597
84.55	1591
84.56	1604
84.57	1609
84.58	1587
84.59	1580
84.6	1582
84.61	1611
84.62	1597
84.63	1607
84.64	1621
84.65	1600
84.66	1620
84.67	1590
84.68	1563
84.69	1528
84.7	1514
84.71	1519
84.72	1564
84.73	1563
84.74	1582
84.75	1566
84.76	1532
84.77	1575
84.78	1532
84.79	1513
84.8	1508
84.81	1490
84.82	1487
84.83	1537
84.84	1532
84.85	1516
84.86	1513
84.87	1525
84.88	1540
84.89	1523
84.9	1569
84.91	1564
84.92	1545
84.93	1499
84.94	1466
84.95	1462
84.96	1461
84.97	1477
84.98	1487
84.99	1490
85.0	1488
85.01	1478
85.02	1466
85.03	1460
85.04	1435
85.05	1443
85.06	1476
85.07	1452
85.08	1434
85.09	1462
85.1	1455
85.11	1408
85.12	1428
85.13	1444
85.14	1458
85.15	1453
85.16	1404
85.17	1395
85.18	1413
85.19	1440
85.2	1437
85.21	1461
85.22	1443
85.23	1428
85.24	1433
85.25	1452
85.26	1463
85.27	1427
85.28	1405
85.29	1409
85.3	1411
85.31	1437
85.32	1450
85.33	1416
85.34	1422
85.35	1406
85.36	1433
85.37	1407
85.38	1377
85.39	1401
85.4	1430
85.41	1424
85.42	1442
85.43	1442
85.44	1403
85.45	1416
85.46	1448
85.47	1462
85.48	1454
85.49	1442
85.5	1471
85.51	1485
85.52	1416
85.53	1369
85.54	1391
85.55	1412
85.56	1458
85.57	1430
85.58	1380
85.59	1383
85.6	1415
85.61	1426
85.62	1438
85.63	1394
85.64	1403
85.65	1405
85.66	1427
85.67	1421
85.68	1423
85.69	1478
85.7	1462
85.71	1417
85.72	1422
85.73	1446
85.74	1417
85.75	1375
85.76	1396
85.77	1464
85.78	1431
85.79	1447
85.8	1461
85.81	1426
85.82	1446
85.83	1439
85.84	1454
85.85	1417
85.86	1449
85.87	1473
85.88	1460
85.89	1433
85.9	1410
85.91	1425
85.92	1483
85.93	1473
85.94	1457
85.95	1447
85.96	1407
85.97	1400
85.98	1444
85.99	1462
86.0	1441
86.01	1444
86.02	1472
86.03	1486
86.04	1469
86.05	1441
86.06	1444
86.07	1432
86.08	1437
86.09	1480
86.1	1461
86.11	1444
86.12	1458
86.13	1450
86.14	1456
86.15	1454
86.16	1455
86.17	1416
86.18	1438
86.19	1443
86.2	1403
86.21	1435
86.22	1448
86.23	1435
86.24	1441
86.25	1468
86.26	1468
86.27	1447
86.28	1480
86.29	1466
86.3	1428
86.31	1423
86.32	1435
86.33	1446
86.34	1442
86.35	1437
86.36	1438
86.37	1443
86.38	1432
86.39	1404
86.4	1397
86.41	1418
86.42	1448
86.43	1432
86.44	1425
86.45	1417
86.46	1425
86.47	1437
86.48	1419
86.49	1432
86.5	1447
86.51	1479
86.52	1507
86.53	1450
86.54	1395
86.55	1410
86.56	1419
86.57	1383
86.58	1387
86.59	1419
86.6	1402
86.61	1419
86.62	1420
86.63	1417
86.64	1409
86.65	1443
86.66	1459
86.67	1465
86.68	1450
86.69	1423
86.7	1424
86.71	1417
86.72	1439
86.73	1449
86.74	1434
86.75	1400
86.76	1384
86.77	1407
86.78	1437
86.79	1406
86.8	1398
86.81	1401
86.82	1438
86.83	1427
86.84	1399
86.85	1394
86.86	1410
86.87	1409
86.88	1428
86.89	1436
86.9	1454
86.91	1454
86.92	1448
86.93	1438
86.94	1428
86.95	1420
86.96	1392
86.97	1358
86.98	1365
86.99	1388
87.0	1420
87.01	1444
87.02	1449
87.03	1368
87.04	1353
87.05	1360
87.06	1388
87.07	1407
87.08	1420
87.09	1425
87.1	1426
87.11	1425
87.12	1393
87.13	1372
87.14	1385
87.15	1401
87.16	1428
87.17	1430
87.18	1413
87.19	1404
87.2	1406
87.21	1400
87.22	1420
87.23	1434
87.24	1419
87.25	1417
87.26	1399
87.27	1422
87.28	1425
87.29	1421
87.3	1384
87.31	1391
87.32	1423
87.33	1444
87.34	1452
87.35	1442
87.36	1422
87.37	1412
87.38	1390
87.39	1397
87.4	1404
87.41	1430
87.42	1450
87.43	1433
87.44	1434
87.45	1442
87.46	1445
87.47	1422
87.48	1417
87.49	1397
87.5	1386
87.51	1414
87.52	1427
87.53	1427
87.54	1421
87.55	1387
87.56	1386
87.57	1404
87.58	1408
87.59	1408
87.6	1392
87.61	1409
87.62	1396
87.63	1371
87.64	1373
87.65	1383
87.66	1425
87.67	1461
87.68	1442
87.69	1410
87.7	1390
87.71	1396
87.72	1441
87.73	1461
87.74	1447
87.75	1424
87.76	1399
87.77	1342
87.78	1356
87.79	1388
87.8	1383
87.81	1402
87.82	1420
87.83	1415
87.84	1420
87.85	1393
87.86	1407
87.87	1443
87.88	1423
87.89	1418
87.9	1407
87.91	1424
87.92	1428
87.93	1427
87.94	1407
87.95	1388
87.96	1399
87.97	1401
87.98	1411
87.99	1420
88.0	1432
88.01	1436
88.02	1449
88.03	1465
88.04	1422
88.05	1395
88.06	1411
88.07	1431
88.08	1414
88.09	1421
88.1	1437
88.11	1434
88.12	1452
88.13	1455
88.14	1457
88.15	1443
88.16	1398
88.17	1398
88.18	1442
88.19	1458
88.2	1459
88.21	1420
88.22	1402
88.23	1389
88.24	1367
88.25	1363
88.26	1387
88.27	1426
88.28	1414
88.29	1376
88.3	1397
88.31	1387
88.32	1365
88.33	1365
88.34	1382
88.35	1429
88.36	1432
88.37	1432
88.38	1404
88.39	1387
88.4	1431
88.41	1444
88.42	1428
88.43	1395
88.44	1387
88.45	1388
88.46	1360
88.47	1385
88.48	1439
88.49	1465
88.5	1457
88.51	1454
88.52	1410
88.53	1441
88.54	1470
88.55	1452
88.56	1396
88.57	1373
88.58	1431
88.59	1421
88.6	1400
88.61	1398
88.62	1404
88.63	1405
88.64	1409
88.65	1422
88.66	1401
88.67	1377
88.68	1368
88.69	1376
88.7	1378
88.71	1421
88.72	1422
88.73	1397
88.74	1384
88.75	1358
88.76	1380
88.77	1452
88.78	1484
88.79	1440
88.8	1423
88.81	1421
88.82	1392
88.83	1391
88.84	1450
88.85	1448
88.86	1406
88.87	1381
88.88	1396
88.89	1427
88.9	1423
88.91	1410
88.92	1401
88.93	1417
88.94	1427
88.95	1408
88.96	1396
88.97	1415
88.98	1415
88.99	1398
89.0	1401
89.01	1389
89.02	1376
89.03	1373
89.04	1383
89.05	1414
89.06	1461
89.07	1449
89.08	1401
89.09	1441
89.1	1483
89.11	1461
89.12	1438
89.13	1425
89.14	1412
89.15	1413
89.16	1391
89.17	1400
89.18	1408
89.19	1403
89.2	1408
89.21	1418
89.22	1435
89.23	1432
89.24	1405
89.25	1413
89.26	1442
89.27	1425
89.28	1423
89.29	1429
89.3	1410
89.31	1412
89.32	1400
89.33	1399
89.34	1420
89.35	1429
89.36	1401
89.37	1401
89.38	1434
89.39	1446
89.4	1455
89.41	1428
89.42	1430
89.43	1419
89.44	1399
89.45	1402
89.46	1393
89.47	1399
89.48	1432
89.49	1447
89.5	1451
89.51	1455
89.52	1432
89.53	1387
89.54	1378
89.55	1400
89.56	1437
89.57	1447
89.58	1413
89.59	1393
89.6	1382
89.61	1370
89.62	1374
89.63	1390
89.64	1410
89.65	1426
89.66	1431
89.67	1435
89.68	1424
89.69	1411
89.7	1432
89.71	1423
89.72	1422
89.73	1448
89.74	1421
89.75	1400
89.76	1426
89.77	1457
89.78	1445
89.79	1412
89.8	1383
89.81	1401
89.82	1397
89.83	1393
89.84	1384
89.85	1409
89.86	1442
89.87	1419
89.88	1379
89.89	1383
89.9	1425
89.91	1418
89.92	1405
89.93	1419
89.94	1427
89.95	1443
89.96	1445
89.97	1427
89.98	1441
89.99	1472
90.0	1438
90.01	1421
90.02	1441
90.03	1408
90.04	1392
90.05	1411
90.06	1437
90.07	1424
90.08	1393
90.09	1410
90.1	1423
90.11	1400
90.12	1402
90.13	1421
90.14	1433
90.15	1447
90.16	1468
90.17	1465
90.18	1416
90.19	1381
90.2	1404
90.21	1434
90.22	1423
90.23	1403
90.24	1388
90.25	1389
90.26	1388
90.27	1415
90.28	1428
90.29	1422
90.3	1426
90.31	1447
90.32	1427
90.33	1404
90.34	1408
90.35	1400
90.36	1406
90.37	1420
90.38	1425
90.39	1429
90.4	1427
90.41	1413
90.42	1408
90.43	1421
90.44	1431
90.45	1442
90.46	1413
90.47	1413
90.48	1406
90.49	1400
90.5	1425
90.51	1410
90.52	1398
90.53	1404
90.54	1407
90.55	1430
90.56	1450
90.57	1434
90.58	1444
90.59	1445
90.6	1445
90.61	1474
90.62	1453
90.63	1419
90.64	1411
90.65	1409
90.66	1414
90.67	1404
90.68	1401
90.69	1403
90.7	1378
90.71	1386
90.72	1406
90.73	1398
90.74	1385
90.75	1412
90.76	1440
90.77	1435
90.78	1438
90.79	1418
90.8	1390
90.81	1384
90.82	1401
90.83	1395
90.84	1381
90.85	1414
90.86	1448
90.87	1463
90.88	1453
90.89	1460
90.9	1429
90.91	1385
90.92	1410
90.93	1439
90.94	1464
90.95	1467
90.96	1434
90.97	1412
90.98	1426
90.99	1439
91.0	1453
91.01	1442
91.02	1415
91.03	1428
91.04	1449
91.05	1427
91.06	1399
91.07	1428
91.08	1466
91.09	1485
91.1	1442
91.11	1417
91.12	1424
91.13	1411
91.14	1418
91.15	1437
91.16	1425
91.17	1407
91.18	1408
91.19	1416
91.2	1423
91.21	1422
91.22	1427
91.23	1439
91.24	1433
91.25	1438
91.26	1446
91.27	1465
91.28	1489
91.29	1463
91.3	1444
91.31	1441
91.32	1432
91.33	1456
91.34	1460
91.35	1465
91.36	1475
91.37	1450
91.38	1415
91.39	1433
91.4	1498
91.41	1493
91.42	1461
91.43	1491
91.44	1512
91.45	1487
91.46	1499
91.47	1486
91.48	1473
91.49	1494
91.5	1478
91.51	1478
91.52	1489
91.53	1487
91.54	1509
91.55	1546
91.56	1558
91.57	1544
91.58	1539
91.59	1558
91.6	1562
91.61	1553
91.62	1604
91.63	1678
91.64	1686
91.65	1668
91.66	1694
91.67	1722
91.68	1736
91.69	1780
91.7	1781
91.71	1758
91.72	1815
91.73	1840
91.74	1813
91.75	1803
91.76	1805
91.77	1800
91.78	1777
91.79	1789
91.8	1801
91.81	1790
91.82	1791
91.83	1787
91.84	1741
91.85	1696
91.86	1674
91.87	1666
91.88	1666
91.89	1657
91.9	1661
91.91	1665
91.92	1646
91.93	1678
91.94	1724
91.95	1698
91.96	1667
91.97	1672
91.98	1656
91.99	1683
92.0	1735
92.01	1729
92.02	1711
92.03	1705
92.04	1701
92.05	1701
92.06	1676
92.07	1640
92.08	1618
92.09	1624
92.1	1614
92.11	1592
92.12	1600
92.13	1622
92.14	1615
92.15	1603
92.16	1598
92.17	1559
92.18	1561
92.19	1596
92.2	1601
92.21	1588
92.22	1563
92.23	1532
92.24	1526
92.25	1510
92.26	1480
92.27	1493
92.28	1531
92.29	1538
92.3	1539
92.31	1534
92.32	1516
92.33	1539
92.34	1543
92.35	1512
92.36	1487
92.37	1516
92.38	1543
92.39	1547
92.4	1536
92.41	1492
92.42	1449
92.43	1438
92.44	1432
92.45	1431
92.46	1447
92.47	1446
92.48	1472
92.49	1503
92.5	1485
92.51	1492
92.52	1502
92.53	1465
92.54	1442
92.55	1462
92.56	1440
92.57	1441
92.58	1487
92.59	1457
92.6	1452
92.61	1454
92.62	1457
92.63	1476
92.64	1498
92.65	1508
92.66	1481
92.67	1464
92.68	1470
92.69	1500
92.7	1486
92.71	1463
92.72	1454
92.73	1461
92.74	1473
92.75	1452
92.76	1440
92.77	1442
92.78	1450
92.79	1444
92.8	1486
92.81	1502
92.82	1466
92.83	1454
92.84	1483
92.85	1474
92.86	1458
92.87	1478
92.88	1474
92.89	1446
92.9	1433
92.91	1458
92.92	1450
92.93	1411
92.94	1412
92.95	1430
92.96	1436
92.97	1425
92.98	1430
92.99	1450
93.0	1437
93.01	1437
93.02	1448
93.03	1467
93.04	1475
93.05	1475
93.06	1486
93.07	1479
93.08	1479
93.09	1454
93.1	1429
93.11	1436
93.12	1432
93.13	1469
93.14	1505
93.15	1494
93.16	1477
93.17	1489
93.18	1486
93.19	1471
93.2	1474
93.21	1463
93.22	1456
93.23	1459
93.24	1455
93.25	1437
93.26	1457
93.27	1470
93.28	1438
93.29	1432
93.3	1452
93.31	1499
93.32	1504
93.33	1456
93.34	1451
93.35	1479
93.36	1472
93.37	1469
93.38	1492
93.39	1474
93.4	1452
93.41	1460
93.42	1489
93.43	1509
93.44	1516
93.45	1498
93.46	1466
93.47	1493
93.48	1533
93.49	1534
93.5	1513
93.51	1496
93.52	1505
93.53	1520
93.54	1511
93.55	1516
93.56	1515
93.57	1515
93.58	1521
93.59	1517
93.6	1520
93.61	1535
93.62	1534
93.63	1531
93.64	1546
93.65	1560
93.66	1523
93.67	1510
93.68	1502
93.69	1533
93.7	1562
93.71	1566
93.72	1543
93.73	1496
93.74	1489
93.75	1531
93.76	1509
93.77	1489
93.78	1507
93.79	1510
93.8	1540
93.81	1570
93.82	1583
93.83	1559
93.84	1535
93.85	1550
93.86	1533
93.87	1551
93.88	1531
93.89	1539
93.9	1559
93.91	1549
93.92	1543
93.93	1562
93.94	1611
93.95	1628
93.96	1588
93.97	1556
93.98	1573
93.99	1589
94.0	1564
94.01	1572
94.02	1586
94.03	1582
94.04	1533
94.05	1526
94.06	1532
94.07	1532
94.08	1523
94.09	1506
94.1	1524
94.11	1526
94.12	1561
94.13	1551
94.14	1513
94.15	1512
94.16	1507
94.17	1474
94.18	1483
94.19	1507
94.2	1500
94.21	1527
94.22	1522
94.23	1526
94.24	1532
94.25	1533
94.26	1534
94.27	1530
94.28	1541
94.29	1520
94.3	1506
94.31	1491
94.32	1530
94.33	1544
94.34	1548
94.35	1538
94.36	1528
94.37	1506
94.38	1502
94.39	1525
94.4	1498
94.41	1456
94.42	1449
94.43	1479
94.44	1505
94.45	1486
94.46	1466
94.47	1448
94.48	1448
94.49	1462
94.5	1473
94.51	1488
94.52	1495
94.53	1494
94.54	1473
94.55	1470
94.56	1482
94.57	1479
94.58	1460
94.59	1432
94.6	1444
94.61	1458
94.62	1478
94.63	1486
94.64	1489
94.65	1446
94.66	1454
94.67	1475
94.68	1499
94.69	1475
94.7	1483
94.71	1449
94.72	1425
94.73	1413
94.74	1435
94.75	1492
94.76	1495
94.77	1463
94.78	1469
94.79	1470
94.8	1454
94.81	1433
94.82	1411
94.83	1426
94.84	1420
94.85	1418
94.86	1427
94.87	1446
94.88	1410
94.89	1409
94.9	1466
94.91	1458
94.92	1466
94.93	1464
94.94	1456
94.95	1464
94.96	1441
94.97	1462
94.98	1447
94.99	1438
95.0	1445
95.01	1445
95.02	1440
95.03	1436
95.04	1455
95.05	1483
95.06	1467
95.07	1467
95.08	1450
95.09	1444
95.1	1415
95.11	1420
95.12	1442
95.13	1457
95.14	1489
95.15	1454
95.16	1447
95.17	1466
95.18	1417
95.19	1394
95.2	1423
95.21	1441
95.22	1446
95.23	1444
95.24	1447
95.25	1433
95.26	1433
95.27	1415
95.28	1465
95.29	1471
95.3	1427
95.31	1431
95.32	1429
95.33	1434
95.34	1381
95.35	1380
95.36	1405
95.37	1435
95.38	1423
95.39	1396
95.4	1417
95.41	1442
95.42	1448
95.43	1444
95.44	1431
95.45	1395
95.46	1392
95.47	1407
95.48	1452
95.49	1421
95.5	1410
95.51	1411
95.52	1395
95.53	1415
95.54	1431
95.55	1441
95.56	1422
95.57	1416
95.58	1447
95.59	1468
95.6	1444
95.61	1448
95.62	1457
95.63	1440
95.64	1438
95.65	1439
95.66	1448
95.67	1452
95.68	1447
95.69	1438
95.7	1435
95.71	1465
95.72	1445
95.73	1447
95.74	1437
95.75	1456
95.76	1464
95.77	1489
95.78	1470
95.79	1443
95.8	1395
95.81	1462
95.82	1477
95.83	1477
95.84	1460
95.85	1454
95.86	1441
95.87	1442
95.88	1440
95.89	1445
95.9	1426
95.91	1451
95.92	1444
95.93	1409
95.94	1425
95.95	1427
95.96	1442
95.97	1469
95.98	1464
95.99	1453
96.0	1471
96.01	1462
96.02	1452
96.03	1444
96.04	1459
96.05	1458
96.06	1454
96.07	1434
96.08	1451
96.09	1465
96.1	1480
96.11	1486
96.12	1455
96.13	1439
96.14	1431
96.15	1430
96.16	1450
96.17	1462
96.18	1461
96.19	1470
96.2	1454
96.21	1450
96.22	1462
96.23	1459
96.24	1473
96.25	1490
96.26	1494
96.27	1453
96.28	1460
96.29	1477
96.3	1473
96.31	1482
96.32	1508
96.33	1465
96.34	1422
96.35	1454
96.36	1484
96.37	1499
96.38	1437
96.39	1461
96.4	1481
96.41	1502
96.42	1496
96.43	1500
96.44	1509
96.45	1525
96.46	1487
96.47	1464
96.48	1489
96.49	1489
96.5	1474
96.51	1527
96.52	1505
96.53	1487
96.54	1516
96.55	1557
96.56	1545
96.57	1514
96.58	1542
96.59	1558
96.6	1546
96.61	1539
96.62	1525
96.63	1543
96.64	1567
96.65	1568
96.66	1589
96.67	1527
96.68	1523
96.69	1556
96.7	1577
96.71	1605
96.72	1615
96.73	1605
96.74	1600
96.75	1585
96.76	1613
96.77	1596
96.78	1529
96.79	1533
96.8	1515
96.81	1550
96.82	1579
96.83	1548
96.84	1557
96.85	1565
96.86	1595
96.87	1618
96.88	1580
96.89	1591
96.9	1559
96.91	1554
96.92	1590
96.93	1569
96.94	1569
96.95	1530
96.96	1521
96.97	1578
96.98	1592
96.99	1577
97.0	1537
97.01	1565
97.02	1556
97.03	1550
97.04	1551
97.05	1534
97.06	1504
97.07	1530
97.08	1552
97.09	1554
97.1	1519
97.11	1513
97.12	1510
97.13	1484
97.14	1485
97.15	1506
97.16	1509
97.17	1502
97.18	1517
97.19	1506
97.2	1540
97.21	1510
97.22	1543
97.23	1539
97.24	1509
97.25	1434
97.26	1475
97.27	1500
97.28	1496
97.29	1482
97.3	1513
97.31	1496
97.32	1492
97.33	1523
97.34	1529
97.35	1500
97.36	1483
97.37	1472
97.38	1440
97.39	1440
97.4	1453
97.41	1439
97.42	1440
97.43	1433
97.44	1462
97.45	1445
97.46	1454
97.47	1506
97.48	1477
97.49	1480
97.5	1478
97.51	1442
97.52	1462
97.53	1485
97.54	1462
97.55	1467
97.56	1464
97.57	1470
97.58	1479
97.59	1495
97.6	1474
97.61	1430
97.62	1393
97.63	1419
97.64	1485
97.65	1480
97.66	1478
97.67	1488
97.68	1449
97.69	1432
97.7	1436
97.71	1450
97.72	1432
97.73	1451
97.74	1444
97.75	1448
97.76	1462
97.77	1470
97.78	1435
97.79	1455
97.8	1474
97.81	1453
97.82	1432
97.83	1435
97.84	1454
97.85	1453
97.86	1470
97.87	1446
97.88	1436
97.89	1432
97.9	1429
97.91	1390
97.92	1405
97.93	1413
97.94	1440
97.95	1423
97.96	1476
97.97	1457
97.98	1481
97.99	1448
98.0	1400
98.01	1440
98.02	1459
98.03	1459
98.04	1461
98.05	1458
98.06	1497
98.07	1492
98.08	1507
98.09	1523
98.1	1423
98.11	1408
98.12	1434
98.13	1442
98.14	1431
98.15	1452
98.16	1475
98.17	1469
98.18	1453
98.19	1447
98.2	1488
98.21	1449
98.22	1454
98.23	1450
98.24	1471
98.25	1452
98.26	1476
98.27	1508
98.28	1446
98.29	1453
98.3	1492
98.31	1467
98.32	1471
98.33	1475
98.34	1479
98.35	1503
98.36	1488
98.37	1469
98.38	1471
98.39	1481
98.4	1454
98.41	1419
98.42	1440
98.43	1465
98.44	1452
98.45	1464
98.46	1504
98.47	1507
98.48	1511
98.49	1439
98.5	1463
98.51	1448
98.52	1452
98.53	1500
98.54	1486
98.55	1486
98.56	1469
98.57	1467
98.58	1496
98.59	1489
98.6	1447
98.61	1491
98.62	1464
98.63	1448
98.64	1434
98.65	1458
98.66	1494
98.67	1506
98.68	1502
98.69	1479
98.7	1474
98.71	1510
98.72	1546
98.73	1476
98.74	1506
98.75	1489
98.76	1521
98.77	1559
98.78	1531
98.79	1526
98.8	1503
98.81	1540
98.82	1541
98.83	1541
98.84	1549
98.85	1545
98.86	1540
98.87	1553
98.88	1614
98.89	1591
98.9	1551
98.91	1537
98.92	1565
98.93	1531
98.94	1566
98.95	1582
98.96	1565
98.97	1549
98.98	1579
98.99	1579
99.0	1538
99.01	1589
99.02	1599
99.03	1573
99.04	1577
99.05	1550
99.06	1578
99.07	1562
99.08	1550
99.09	1535
99.1	1621
99.11	1582
99.12	1576
99.13	1555
99.14	1569
99.15	1546
99.16	1554
99.17	1547
99.18	1582
99.19	1576
99.2	1567
99.21	1573
99.22	1602
99.23	1589
99.24	1553
99.25	1565
99.26	1621
99.27	1572
99.28	1557
99.29	1579
99.3	1593
99.31	1600
99.32	1576
99.33	1547
99.34	1568
99.35	1538
99.36	1500
99.37	1553
99.38	1590
99.39	1556
99.4	1568
99.41	1503
99.42	1538
99.43	1528
99.44	1501
99.45	1498
99.46	1499
99.47	1469
99.48	1501
99.49	1589
99.5	1594
99.51	1540
99.52	1550
99.53	1567
99.54	1541
99.55	1498
99.56	1538
99.57	1521
99.58	1524
99.59	1557
99.6	1581
99.61	1548
99.62	1521
99.63	1489
99.64	1501
99.65	1514
99.66	1525
99.67	1533
99.68	1571
99.69	1548
99.7	1521
99.71	1516
99.72	1496
99.73	1483
99.74	1474
99.75	1498
99.76	1519
99.77	1501
99.78	1499
99.79	1499
99.8	1548
99.81	1569
99.82	1491
99.83	1523
99.84	1502
99.85	1492
99.86	1493
99.87	1537
99.88	1485
99.89	1494
99.9	1559
99.91	1504
99.92	1466
99.93	1473
99.94	1466
99.95	1483
99.96	1505
99.97	1460
99.98	1487
99.99	1546
100.0	1445
