10.0	1838
10.01	1803
10.02	1789
10.03	1789
10.04	1796
10.05	1851
10.06	1871
10.07	1845
10.08	1770
10.09	1783
10.1	1760
10.11	1817
10.12	1796
10.13	1757
10.14	1819
10.15	1844
10.16	1802
10.17	1802
10.18	1854
10.19	1806
10.2	1769
10.21	1847
10.22	1827
10.23	1785
10.24	1814
10.25	1787
10.26	1808
10.27	1830
10.28	1880
10.29	1798
10.3	1781
10.31	1836
10.32	1785
10.33	1785
10.34	1819
10.35	1809
10.36	1818
10.37	1843
10.38	1837
10.39	1811
10.4	1786
10.41	1788
10.42	1813
10.43	1824
10.44	1796
10.45	1816
10.46	1838
10.47	1824
10.48	1822
10.49	1797
10.5	1770
10.51	1790
10.52	1866
10.53	1824
10.54	1849
10.55	1800
10.56	1767
10.57	1806
10.58	1831
10.59	1842
10.6	1829
10.61	1831
10.62	1839
10.63	1834
10.64	1842
10.65	1842
10.66	1861
10.67	1862
10.68	1884
10.69	1876
10.7	1844
10.71	1884
10.72	1869
10.73	1850
10.74	1793
10.75	1891
10.76	1898
10.77	1887
10.78	1890
10.79	1822
10.8	1842
10.81	1901
10.82	1875
10.83	1840
10.84	1854
10.85	1905
10.86	1893
10.87	1853
10.88	1906
10.89	1935
10.9	1887
10.91	1856
10.92	1909
10.93	1927
10.94	1847
10.95	1875
10.96	1845
10.97	1854
10.98	1849
10.99	1943
11.0	1891
11.01	1910
11.02	1902
11.03	1894
11.04	1881
11.05	1876
11.06	1868
11.07	1878
11.08	1906
11.09	1878
11.1	1857
11.11	1832
11.12	1882
11.13	1910
11.14	1858
11.15	1869
11.16	1881
11.17	1973
11.18	1933
11.19	1908
11.2	1938
11.21	1898
11.22	1919
11.23	1883
11.24	1850
11.25	1866
11.26	1887
11.27	1903
11.28	1902
11.29	1880
11.3	1909
11.31	1877
11.32	1896
11.33	1934
11.34	1897
11.35	1895
11.36	1973
11.37	1940
11.38	1892
11.39	1918
11.4	1936
11.41	1916
11.42	1921
11.43	1956
11.44	1996
11.45	1961
11.46	1939
11.47	1921
11.48	1905
11.49	1884
11.5	1971
11.51	2010
11.52	1930
11.53	1902
11.54	1892
11.55	1968
11.56	1953
11.57	1924
11.58	1962
11.59	1945
11.6	1920
11.61	1936
11.62	1952
11.63	1957
11.64	1887
11.65	1935
11.66	1949
11.67	1938
11.68	1953
11.69	1993
11.7	2034
11.71	1955
11.72	1892
11.73	1929
11.74	1947
11.75	1969
11.76	1950
11.77	1928
11.78	1955
11.79	1946
11.8	1942
11.81	1953
11.82	1932
11.83	1982
11.84	1990
11.85	1999
11.86	1946
11.87	1949
11.88	1901
11.89	1954
11.9	1997
11.91	1975
11.92	1952
11.93	1992
11.94	2034
11.95	1991
11.96	1988
11.97	2033
11.98	1965
11.99	1918
12.0	1934
12.01	1973
12.02	1995
12.03	1957
12.04	1956
12.05	2023
12.06	2019
12.07	1999
12.08	1972
12.09	2030
12.1	2035
12.11	1999
12.12	2003
12.13	2029
12.14	1955
12.15	1946
12.16	2022
12.17	1997
12.18	2014
12.19	2012
12.2	2031
12.21	2056
12.22	2032
12.23	2022
12.24	2012
12.25	2051
12.26	2012
12.27	1985
12.28	2055
12.29	2035
12.3	1984
12.31	1957
12.32	1995
12.33	1987
12.34	1988
12.35	2049
12.36	2031
12.37	2059
12.38	2088
12.39	2001
12.4	1985
12.41	2057
12.42	2057
12.43	2011
12.44	2051
12.45	2062
12.46	2042
12.47	1997
12.48	1996
12.49	2022
12.5	2022
12.51	2053
12.52	2034
12.53	2054
12.54	2100
12.55	2098
12.56	2005
12.57	2004
12.58	2029
12.59	2052
12.6	2060
12.61	2052
12.62	2036
12.63	2054
12.64	1989
12.65	2018
12.66	2082
12.67	2023
12.68	1990
12.69	2034
12.7	2043
12.71	2047
12.72	2082
12.73	2065
12.74	2027
12.75	2060
12.76	2068
12.77	2096
12.78	2095
12.79	2067
12.8	2057
12.81	2043
12.82	2022
12.83	2055
12.84	2110
12.85	2048
12.86	2065
12.87	1993
12.88	2046
12.89	2038
12.9	2034
12.91	2038
12.92	2039
12.93	2066
12.94	2089
12.95	2074
12.96	2136
12.97	2100
12.98	2027
12.99	2062
13.0	2091
13.01	2108
13.02	2096
13.03	2100
13.04	2078
13.05	2153
13.06	2148
13.07	2077
13.08	2086
13.09	2065
13.1	2038
13.11	2067
13.12	2054
13.13	2076
13.14	2076
13.15	2102
13.16	2124
13.17	2094
13.18	2065
13.19	2048
13.2	2088
13.21	2087
13.22	2067
13.23	2089
13.24	2076
13.25	1999
13.26	2065
13.27	2132
13.28	2109
13.29	2097
13.3	2116
13.31	2088
13.32	2090
13.33	2067
13.34	2060
13.35	2078
13.36	2122
13.37	2115
13.38	2114
13.39	2106
13.4	2114
13.41	2130
13.42	2094
13.43	2089
13.44	2129
13.45	2113
13.46	2089
13.47	2109
13.48	2085
13.49	2107
13.5	2084
13.51	2046
13.52	2111
13.53	2123
13.54	2116
13.55	2091
13.56	2150
13.57	2151
13.58	2109
13.59	2103
13.6	2076
13.61	2073
13.62	2083
13.63	2098
13.64	2100
13.65	2142
13.66	2084
13.67	2084
13.68	2165
13.69	2166
13.7	2142
13.71	2077
13.72	2094
13.73	2067
13.74	2130
13.75	2132
13.76	2098
13.77	2123
13.78	2126
13.79	2101
13.8	2082
13.81	2063
13.82	2105
13.83	2130
13.84	2162
13.85	2153
13.86	2134
13.87	2089
13.88	2097
13.89	2120
13.9	2172
13.91	2170
13.92	2174
13.93	2167
13.94	2202
13.95	2146
13.96	2116
13.97	2176
13.98	2174
13.99	2153
14.0	2170
14.01	2138
14.02	2131
14.03	2157
14.04	2132
14.05	2130
14.06	2174
14.07	2202
14.08	2195
14.09	2148
14.1	2134
14.11	2116
14.12	2114
14.13	2115
14.14	2145
14.15	2163
14.16	2161
14.17	2162
14.18	2162
14.19	2121
14.2	2160
14.21	2190
14.22	2168
14.23	2168
14.24	2154
14.25	2130
14.26	2154
14.27	2160
14.28	2161
14.29	2155
14.3	2120
14.31	2106
14.32	2107
14.33	2149
14.34	2146
14.35	2114
14.36	2126
14.37	2172
14.38	2213
14.39	2160
14.4	2134
14.41	2137
14.42	2204
14.43	2179
14.44	2120
14.45	2112
14.46	2140
14.47	2165
14.48	2135
14.49	2129
14.5	2102
14.51	2130
14.52	2184
14.53	2146
14.54	2119
14.55	2145
14.56	2144
14.57	2139
14.58	2139
14.59	2144
14.6	2131
14.61	2155
14.62	2177
14.63	2145
14.64	2134
14.65	2125
14.66	2118
14.67	2145
14.68	2169
14.69	2177
14.7	2162
14.71	2196
14.72	2194
14.73	2185
14.74	2137
14.75	2104
14.76	2142
14.77	2137
14.78	2128
14.79	2111
14.8	2148
14.81	2154
14.82	2116
14.83	2077
14.84	2094
14.85	2132
14.86	2164
14.87	2162
14.88	2162
14.89	2139
14.9	2137
14.91	2139
14.92	2126
14.93	2126
14.94	2105
14.95	2095
14.96	2076
14.97	2148
14.98	2182
14.99	2156
15.0	2182
15.01	2145
15.02	2095
15.03	2105
15.04	2140
15.05	2155
15.06	2160
15.07	2132
15.08	2097
15.09	2078
15.1	2133
15.11	2167
15.12	2157
15.13	2157
15.14	2132
15.15	2136
15.16	2104
15.17	2080
15.18	2092
15.19	2100
15.2	2077
15.21	2050
15.22	2063
15.23	2101
15.24	2124
15.25	2101
15.26	2084
15.27	2081
15.28	2101
15.29	2137
15.3	2141
15.31	2116
15.32	2124
15.33	2140
15.34	2105
15.35	2080
15.36	2120
15.37	2121
15.38	2124
15.39	2126
15.4	2106
15.41	2117
15.42	2123
15.43	2080
15.44	2062
15.45	2090
15.46	2085
15.47	2036
15.48	2047
15.49	2099
15.5	2122
15.51	2123
15.52	2119
15.53	2138
15.54	2174
15.55	2121
15.56	2090
15.57	2087
15.58	2082
15.59	2063
15.6	2090
15.61	2081
15.62	2051
15.63	2060
15.64	2122
15.65	2142
15.66	2108
15.67	2073
15.68	2034
15.69	2075
15.7	2097
15.71	2113
15.72	2111
15.73	2112
15.74	2107
15.75	2090
15.76	2082
15.77	2096
15.78	2086
15.79	2078
15.8	2095
15.81	2109
15.82	2109
15.83	2099
15.84	2090
15.85	2064
15.86	2072
15.87	2122
15.88	2112
15.89	2096
15.9	2079
15.91	2080
15.92	2108
15.93	2122
15.94	2106
15.95	2105
15.96	2131
15.97	2134
15.98	2126
15.99	2141
16.0	2130
16.01	2065
16.02	2083
16.03	2089
16.04	2084
16.05	2080
16.06	2092
16.07	2076
16.08	2081
16.09	2088
16.1	2034
16.11	2010
16.12	2047
16.13	2040
16.14	2021
16.15	2054
16.16	2104
16.17	2105
16.18	2052
16.19	2001
16.2	1988
16.21	2042
16.22	2101
16.23	2096
16.24	2096
16.25	2110
16.26	2092
16.27	2072
16.28	2079
16.29	2073
16.3	2067
16.31	2060
16.32	2060
16.33	2094
16.34	2111
16.35	2104
16.36	2090
16.37	2099
16.38	2063
16.39	2043
16.4	2068
16.41	2082
16.42	2089
16.43	2099
16.44	2066
16.45	2063
16.46	2091
16.47	2090
16.48	2098
16.49	2088
16.5	2063
16.51	2083
16.52	2109
16.53	2097
16.54	2094
16.55	2107
16.56	2096
16.57	2064
16.58	2052
16.59	2079
16.6	2075
16.61	2054
16.62	2088
16.63	2101
16.64	2073
16.65	2083
16.66	2086
16.67	2040
16.68	2031
16.69	2047
16.7	2070
16.71	2102
16.72	2105
16.73	2089
16.74	2096
16.75	2148
16.76	2142
16.77	2098
16.78	2081
16.79	2074
16.8	2071
16.81	2068
16.82	2102
16.83	2072
16.84	2012
16.85	2057
16.86	2073
16.87	2055
16.88	2052
16.89	2055
16.9	2063
16.91	2065
16.92	2044
16.93	2037
16.94	2042
16.95	2037
16.96	2075
16.97	2105
16.98	2073
16.99	2028
17.0	2017
17.01	2027
17.02	2043
17.03	2050
17.04	2042
17.05	2029
17.06	2058
17.07	2045
17.08	2027
17.09	2046
17.1	2039
17.11	2035
17.12	2057
17.13	2074
17.14	2047
17.15	2011
17.16	2042
17.17	2063
17.18	2060
17.19	2071
17.2	2056
17.21	2060
17.22	2086
17.23	2084
17.24	2067
17.25	2076
17.26	2073
17.27	2029
17.28	2004
17.29	2019
17.3	2020
17.31	2022
17.32	2034
17.33	2017
17.34	1989
17.35	2047
17.36	2073
17.37	2031
17.38	2047
17.39	2085
17.4	2077
17.41	2047
17.42	2020
17.43	2001
17.44	2053
17.45	2087
17.46	2066
17.47	2068
17.48	2055
17.49	2019
17.5	2024
17.51	2023
17.52	1990
17.53	2004
17.54	2032
17.55	2050
17.56	2048
17.57	2035
17.58	2042
17.59	2028
17.6	2035
17.61	2065
17.62	2045
17.63	2025
17.64	2046
17.65	2052
17.66	2054
17.67	2033
17.68	2019
17.69	2040
17.7	2034
17.71	2012
17.72	2010
17.73	2038
17.74	2045
17.75	2001
17.76	1985
17.77	1989
17.78	1979
17.79	1989
17.8	2027
17.81	2050
17.82	2031
17.83	2015
17.84	2011
17.85	2027
17.86	2050
17.87	2052
17.88	2012
17.89	1992
17.9	2014
17.91	2038
17.92	2038
17.93	2026
17.94	2037
17.95	2030
17.96	2012
17.97	2000
17.98	2033
17.99	2071
18.0	2047
18.01	2039
18.02	2079
18.03	2072
18.04	2019
18.05	1981
18.06	2031
18.07	2098
18.08	2072
18.09	2046
18.1	2034
18.11	1994
18.12	1951
18.13	1971
18.14	2035
18.15	2044
18.16	2047
18.17	2042
18.18	2043
18.19	2014
18.2	2012
18.21	2047
18.22	2040
18.23	2017
18.24	2036
18.25	2091
18.26	2097
18.27	2047
18.28	2016
18.29	2039
18.3	2069
18.31	2062
18.32	2062
18.33	2078
18.34	2082
18.35	2075
18.36	2077
18.37	2053
18.38	2052
18.39	2051
18.4	2059
18.41	2101
18.42	2149
18.43	2124
18.44	2105
18.45	2130
18.46	2155
18.47	2216
18.48	2254
18.49	2242
18.5	2226
18.51	2276
18.52	2324
18.53	2328
18.54	2349
18.55	2363
18.56	2405
18.57	2500
18.58	2561
18.59	2638
18.6	2762
18.61	2890
18.62	3010
18.63	3134
18.64	3300
18.65	3444
18.66	3600
18.67	3845
18.68	4087
18.69	4237
18.7	4398
18.71	4554
18.72	4612
18.73	4613
18.74	4563
18.75	4439
18.76	4160
18.77	3801
18.78	3539
18.79	3345
18.8	3128
18.81	2880
18.82	2694
18.83	2542
18.84	2414
18.85	2322
18.86	2276
18.87	2209
18.88	2155
18.89	2149
18.9	2120
18.91	2118
18.92	2118
18.93	2102
18.94	2089
18.95	2057
18.96	2038
18.97	2077
18.98	2035
18.99	1983
19.0	2043
19.01	2059
19.02	2046
19.03	2086
19.04	2056
19.05	1999
19.06	2002
19.07	2013
19.08	2028
19.09	1998
19.1	1973
19.11	1986
19.12	2018
19.13	2013
19.14	1987
19.15	1978
19.16	1976
19.17	1984
19.18	2005
19.19	1954
19.2	1925
19.21	1968
19.22	1968
19.23	1936
19.24	1949
19.25	1953
19.26	1933
19.27	1958
19.28	1970
19.29	1963
19.3	1974
19.31	1973
19.32	1967
19.33	1951
19.34	1938
19.35	1908
19.36	1923
19.37	1958
19.38	1917
19.39	1926
19.4	1929
19.41	1922
19.42	1927
19.43	1937
19.44	1963
19.45	1959
19.46	1977
19.47	2015
19.48	2003
19.49	1945
19.5	1934
19.51	1927
19.52	1908
19.53	1912
19.54	1913
19.55	1935
19.56	1908
19.57	1881
19.58	1920
19.59	1954
19.6	1950
19.61	1917
19.62	1906
19.63	1931
19.64	1973
19.65	1959
19.66	1918
19.67	1886
19.68	1899
19.69	1923
19.7	1935
19.71	1937
19.72	1921
19.73	1902
19.74	1886
19.75	1886
19.76	1888
19.77	1914
19.78	1928
19.79	1933
19.8	1895
19.81	1883
19.82	1905
19.83	1930
19.84	1951
19.85	1929
19.86	1881
19.87	1871
19.88	1883
19.89	1919
19.9	1905
19.91	1935
19.92	1957
19.93	1925
19.94	1910
19.95	1884
19.96	1869
19.97	1883
19.98	1914
19.99	1898
20.0	1869
20.01	1866
20.02	1897
20.03	1901
20.04	1881
20.05	1910
20.06	1926
20.07	1899
20.08	1859
20.09	1846
20.1	1853
20.11	1876
20.12	1845
20.13	1854
20.14	1878
20.15	1904
20.16	1920
20.17	1887
20.18	1852
20.19	1883
20.2	1855
20.21	1836
20.22	1834
20.23	1872
20.24	1880
20.25	1911
20.26	1871
20.27	1875
20.28	1883
20.29	1850
20.3	1854
20.31	1879
20.32	1868
20.33	1826
20.34	1831
20.35	1868
20.36	1880
20.37	1831
20.38	1860
20.39	1857
20.4	1873
20.41	1870
20.42	1882
20.43	1849
20.44	1840
20.45	1835
20.46	1847
20.47	1851
20.48	1824
20.49	1825
20.5	1857
20.51	1887
20.52	1881
20.53	1896
20.54	1882
20.55	1854
20.56	1838
20.57	1815
20.58	1770
20.59	1831
20.6	1870
20.61	1833
20.62	1861
20.63	1842
20.64	1844
20.65	1821
20.66	1833
20.67	1877
20.68	1838
20.69	1853
20.7	1916
20.71	1889
20.72	1912
20.73	1925
20.74	1965
20.75	1943
20.76	1942
20.77	1983
20.78	2061
20.79	2074
20.8	2029
20.81	2047
20.82	2096
20.83	2093
20.84	2147
20.85	2153
20.86	2106
20.87	2137
20.88	2178
20.89	2119
20.9	2124
20.91	2056
20.92	2076
20.93	2049
20.94	2052
20.95	2048
20.96	2021
20.97	2066
20.98	2039
20.99	1995
21.0	2011
21.01	2003
21.02	1946
21.03	1870
21.04	1879
21.05	1956
21.06	1993
21.07	1983
21.08	1950
21.09	1964
21.1	1964
21.11	1909
21.12	1931
21.13	1929
21.14	1942
21.15	1918
21.16	1907
21.17	1904
21.18	1943
21.19	1965
21.2	1929
21.21	1914
21.22	1909
21.23	1893
21.24	1878
21.25	1906
21.26	1900
21.27	1850
21.28	1846
21.29	1867
21.3	1868
21.31	1865
21.32	1846
21.33	1861
21.34	1913
21.35	1907
21.36	1882
21.37	1917
21.38	1854
21.39	1842
21.4	1855
21.41	1877
21.42	1837
21.43	1852
21.44	1896
21.45	1874
21.46	1879
21.47	1888
21.48	1885
21.49	1868
21.5	1880
21.51	1873
21.52	1878
21.53	1872
21.54	1860
21.55	1796
21.56	1891
21.57	1862
21.58	1855
21.59	1871
21.6	1898
21.61	1940
21.62	1876
21.63	1843
21.64	1848
21.65	1890
21.66	1830
21.67	1783
21.68	1822
21.69	1855
21.7	1888
21.71	1884
21.72	1815
21.73	1801
21.74	1865
21.75	1894
21.76	1873
21.77	1878
21.78	1893
21.79	1851
21.8	1866
21.81	1832
21.82	1816
21.83	1866
21.84	1791
21.85	1788
21.86	1828
21.87	1878
21.88	1812
21.89	1814
21.9	1815
21.91	1792
21.92	1791
21.93	1828
21.94	1824
21.95	1806
21.96	1788
21.97	1792
21.98	1812
21.99	1784
22.0	1773
22.01	1787
22.02	1823
22.03	1784
22.04	1838
22.05	1829
22.06	1761
22.07	1727
22.08	1730
22.09	1767
22.1	1830
22.11	1780
22.12	1745
22.13	1737
22.14	1770
22.15	1700
22.16	1686
22.17	1828
22.18	1828
22.19	1763
22.2	1756
22.21	1730
22.22	1753
22.23	1734
22.24	1723
22.25	1702
22.26	1681
22.27	1727
22.28	1752
22.29	1716
22.3	1760
22.31	1784
22.32	1772
22.33	1759
22.34	1776
22.35	1733
22.36	1706
22.37	1697
22.38	1750
22.39	1736
22.4	1647
22.41	1656
22.42	1717
22.43	1701
22.44	1675
22.45	1635
22.46	1700
22.47	1674
22.48	1693
22.49	1721
22.5	1720
22.51	1686
22.52	1706
22.53	1685
22.54	1661
22.55	1697
22.56	1688
22.57	1739
22.58	1697
22.59	1653
22.6	1705
22.61	1718
22.62	1766
22.63	1712
22.64	1710
22.65	1733
22.66	1688
22.67	1724
22.68	1684
22.69	1733
22.7	1697
22.71	1658
22.72	1685
22.73	1717
22.74	1663
22.75	1681
22.76	1698
22.77	1689
22.78	1704
22.79	1701
22.8	1666
22.81	1672
22.82	1675
22.83	1661
22.84	1647
22.85	1700
22.86	1758
22.87	1712
22.88	1694
22.89	1687
22.9	1693
22.91	1680
22.92	1649
22.93	1667
22.94	1655
22.95	1634
22.96	1634
22.97	1675
22.98	1645
22.99	1633
23.0	1661
23.01	1694
23.02	1658
23.03	1659
23.04	1669
23.05	1669
23.06	1623
23.07	1691
23.08	1636
23.09	1642
23.1	1656
23.11	1629
23.12	1643
23.13	1630
23.14	1600
23.15	1684
23.16	1728
23.17	1669
23.18	1655
23.19	1648
23.2	1655
23.21	1668
23.22	1670
23.23	1661
23.24	1629
23.25	1624
23.26	1591
23.27	1615
23.28	1677
23.29	1701
23.3	1704
23.31	1625
23.32	1615
23.33	1619
23.34	1674
23.35	1644
23.36	1647
23.37	1666
23.38	1661
23.39	1633
23.4	1643
23.41	1627
23.42	1622
23.43	1630
23.44	1648
23.45	1627
23.46	1568
23.47	1616
23.48	1637
23.49	1627
23.5	1628
23.51	1631
23.52	1638
23.53	1616
23.54	1621
23.55	1589
23.56	1599
23.57	1625
23.58	1603
23.59	1577
23.6	1564
23.61	1651
23.62	1599
23.63	1585
23.64	1673
23.65	1676
23.66	1642
23.67	1608
23.68	1638
23.69	1588
23.7	1615
23.71	1673
23.72	1682
23.73	1677
23.74	1646
23.75	1625
23.76	1610
23.77	1632
23.78	1662
23.79	1667
23.8	1599
23.81	1587
23.82	1587
23.83	1620
23.84	1622
23.85	1628
23.86	1632
23.87	1618
23.88	1600
23.89	1583
23.9	1596
23.91	1568
23.92	1601
23.93	1609
23.94	1602
23.95	1615
23.96	1620
23.97	1659
23.98	1633
23.99	1656
24.0	1678
24.01	1641
24.02	1585
24.03	1606
24.04	1615
24.05	1632
24.06	1585
24.07	1594
24.08	1598
24.09	1618
24.1	1615
24.11	1582
24.12	1623
24.13	1635
24.14	1613
24.15	1631
24.16	1627
24.17	1647
24.18	1588
24.19	1639
24.2	1683
24.21	1661
24.22	1625
24.23	1581
24.24	1618
24.25	1612
24.26	1631
24.27	1639
24.28	1629
24.29	1640
24.3	1643
24.31	1585
24.32	1594
24.33	1606
24.34	1632
24.35	1609
24.36	1579
24.37	1612
24.38	1617
24.39	1621
24.4	1621
24.41	1645
24.42	1641
24.43	1640
24.44	1627
24.45	1638
24.46	1655
24.47	1645
24.48	1656
24.49	1651
24.5	1618
24.51	1594
24.52	1608
24.53	1661
24.54	1653
24.55	1662
24.56	1652
24.57	1639
24.58	1655
24.59	1667
24.6	1718
24.61	1708
24.62	1684
24.63	1616
24.64	1628
24.65	1651
24.66	1686
24.67	1695
24.68	1693
24.69	1711
24.7	1699
24.71	1675
24.72	1671
24.73	1709
24.74	1716
24.75	1710
24.76	1719
24.77	1747
24.78	1755
24.79	1747
24.8	1711
24.81	1768
24.82	1807
24.83	1807
24.84	1791
24.85	1840
24.86	1873
24.87	1855
24.88	1834
24.89	1822
24.9	1851
24.91	1837
24.92	1881
24.93	1885
24.94	1935
24.95	1936
24.96	1970
24.97	1935
24.98	1977
24.99	2069
25.0	2090
25.01	2108
25.02	2086
25.03	2123
25.04	2169
25.05	2160
25.06	2177
25.07	2247
25.08	2288
25.09	2310
25.1	2333
25.11	2359
25.12	2401
25.13	2427
25.14	2478
25.15	2478
25.16	2543
25.17	2613
25.18	2627
25.19	2627
25.2	2703
25.21	2738
25.22	2764
25.23	2769
25.24	2771
25.25	2807
25.26	2852
25.27	2837
25.28	2846
25.29	2898
25.3	2919
25.31	2916
25.32	2894
25.33	2911
25.34	2901
25.35	2909
25.36	2921
25.37	2879
25.38	2859
25.39	2776
25.4	2772
25.41	2800
25.42	2788
25.43	2739
25.44	2690
25.45	2653
25.46	2621
25.47	2594
25.48	2607
25.49	2574
25.5	2520
25.51	2500
25.52	2415
25.53	2356
25.54	2335
25.55	2331
25.56	2268
25.57	2241
25.58	2210
25.59	2182
25.6	2201
25.61	2138
25.62	2068
25.63	2050
25.64	2079
25.65	2034
25.66	2013
25.67	1994
25.68	1944
25.69	1936
25.7	1924
25.71	1875
25.72	1844
25.73	1822
25.74	1798
25.75	1797
25.76	1789
25.77	1764
25.78	1745
25.79	1731
25.8	1715
25.81	1708
25.82	1709
25.83	1702
25.84	1674
25.85	1686
25.86	1674
25.87	1642
25.88	1636
25.89	1644
25.9	1637
25.91	1614
25.92	1630
25.93	1646
25.94	1588
25.95	1545
25.96	1544
25.97	1560
25.98	1537
25.99	1523
26.0	1540
26.01	1541
26.02	1537
26.03	1533
26.04	1546
26.05	1537
26.06	1519
26.07	1532
26.08	1524
26.09	1496
26.1	1506
26.11	1531
26.12	1538
26.13	1505
26.14	1506
26.15	1512
26.16	1516
26.17	1504
26.18	1473
26.19	1480
26.2	1490
26.21	1524
26.22	1522
26.23	1497
26.24	1505
26.25	1501
26.26	1459
26.27	1501
26.28	1500
26.29	1450
26.3	1467
26.31	1487
26.32	1459
26.33	1449
26.34	1471
26.35	1470
26.36	1466
26.37	1468
26.38	1450
26.39	1468
26.4	1476
26.41	1478
26.42	1497
26.43	1496
26.44	1482
26.45	1492
26.46	1472
26.47	1449
26.48	1455
26.49	1454
26.5	1436
26.51	1429
26.52	1428
26.53	1428
26.54	1412
26.55	1397
26.56	1419
26.57	1447
26.58	1473
26.59	1459
26.6	1426
26.61	1437
26.62	1452
26.63	1452
26.64	1446
26.65	1438
26.66	1428
26.67	1450
26.68	1452
26.69	1433
26.7	1427
26.71	1457
26.72	1451
26.73	1427
26.74	1442
26.75	1450
26.76	1411
26.77	1364
26.78	1393
26.79	1443
26.8	1440
26.81	1450
26.82	1445
26.83	1416
26.84	1398
26.85	1398
26.86	1423
26.87	1410
26.88	1371
26.89	1393
26.9	1428
26.91	1424
26.92	1441
26.93	1458
26.94	1457
26.95	1442
26.96	1422
26.97	1426
26.98	1426
26.99	1400
27.0	1383
27.01	1405
27.02	1430
27.03	1417
27.04	1418
27.05	1419
27.06	1384
27.07	1393
27.08	1414
27.09	1393
27.1	1377
27.11	1368
27.12	1371
27.13	1379
27.14	1373
27.15	1361
27.16	1363
27.17	1392
27.18	1413
27.19	1405
27.2	1409
27.21	1420
27.22	1413
27.23	1423
27.24	1452
27.25	1418
27.26	1386
27.27	1405
27.28	1410
27.29	1416
27.3	1412
27.31	1408
27.32	1413
27.33	1421
27.34	1422
27.35	1405
27.36	1385
27.37	1401
27.38	1411
27.39	1391
27.4	1388
27.41	1398
27.42	1394
27.43	1382
27.44	1403
27.45	1419
27.46	1432
27.47	1416
27.48	1403
27.49	1435
27.5	1415
27.51	1381
27.52	1385
27.53	1389
27.54	1387
27.55	1398
27.56	1382
27.57	1343
27.58	1369
27.59	1398
27.6	1385
27.61	1385
27.62	1421
27.63	1425
27.64	1389
27.65	1378
27.66	1374
27.67	1374
27.68	1395
27.69	1393
27.7	1384
27.71	1389
27.72	1396
27.73	1392
27.74	1383
27.75	1373
27.76	1383
27.77	1404
27.78	1413
27.79	1389
27.8	1363
27.81	1355
27.82	1365
27.83	1346
27.84	1332
27.85	1359
27.86	1382
27.87	1359
27.88	1360
27.89	1397
27.9	1385
27.91	1329
27.92	1342
27.93	1384
27.94	1362
27.95	1321
27.96	1315
27.97	1331
27.98	1334
27.99	1349
28.0	1324
28.01	1302
28.02	1316
28.03	1342
28.04	1353
28.05	1356
28.06	1348
28.07	1333
28.08	1351
28.09	1368
28.1	1334
28.11	1292
28.12	1308
28.13	1324
28.14	1334
28.15	1334
28.16	1350
28.17	1356
28.18	1346
28.19	1329
28.2	1345
28.21	1332
28.22	1313
28.23	1313
28.24	1324
28.25	1334
28.26	1337
28.27	1342
28.28	1339
28.29	1333
28.3	1305
28.31	1309
28.32	1310
28.33	1329
28.34	1356
28.35	1350
28.36	1324
28.37	1270
28.38	1273
28.39	1299
28.4	1309
28.41	1309
28.42	1301
28.43	1321
28.44	1313
28.45	1301
28.46	1296
28.47	1291
28.48	1294
28.49	1312
28.5	1306
28.51	1274
28.52	1266
28.53	1266
28.54	1298
28.55	1300
28.56	1287
28.57	1287
28.58	1274
28.59	1280
28.6	1263
28.61	1280
28.62	1284
28.63	1255
28.64	1284
28.65	1297
28.66	1269
28.67	1275
28.68	1301
28.69	1317
28.7	1283
28.71	1247
28.72	1249
28.73	1286
28.74	1304
28.75	1306
28.76	1303
28.77	1280
28.78	1285
28.79	1262
28.8	1242
28.81	1255
28.82	1273
28.83	1290
28.84	1289
28.85	1273
28.86	1279
28.87	1294
28.88	1291
28.89	1293
28.9	1303
28.91	1296
28.92	1266
28.93	1251
28.94	1270
28.95	1264
28.96	1299
28.97	1295
28.98	1310
28.99	1296
29.0	1283
29.01	1273
29.02	1263
29.03	1245
29.04	1263
29.05	1275
29.06	1243
29.07	1249
29.08	1259
29.09	1255
29.1	1262
29.11	1246
29.12	1226
29.13	1245
29.14	1271
29.15	1265
29.16	1255
29.17	1273
29.18	1274
29.19	1260
29.2	1226
29.21	1229
29.22	1238
29.23	1271
29.24	1262
29.25	1273
29.26	1264
29.27	1257
29.28	1265
29.29	1256
29.3	1258
29.31	1272
29.32	1266
29.33	1262
29.34	1269
29.35	1265
29.36	1248
29.37	1244
29.38	1268
29.39	1271
29.4	1267
29.41	1241
29.42	1248
29.43	1273
29.44	1290
29.45	1285
29.46	1255
29.47	1292
29.48	1264
29.49	1233
29.5	1230
29.51	1265
29.52	1263
29.53	1265
29.54	1256
29.55	1225
29.56	1226
29.57	1247
29.58	1253
29.59	1250
29.6	1235
29.61	1253
29.62	1282
29.63	1267
29.64	1252
29.65	1243
29.66	1249
29.67	1255
29.68	1270
29.69	1260
29.7	1270
29.71	1249
29.72	1250
29.73	1241
29.74	1220
29.75	1216
29.76	1209
29.77	1204
29.78	1260
29.79	1265
29.8	1223
29.81	1256
29.82	1240
29.83	1256
29.84	1214
29.85	1242
29.86	1231
29.87	1274
29.88	1287
29.89	1247
29.9	1218
29.91	1228
29.92	1233
29.93	1231
29.94	1245
29.95	1254
29.96	1233
29.97	1184
29.98	1167
29.99	1203
30.0	1239
30.01	1228
30.02	1218
30.03	1206
30.04	1230
30.05	1209
30.06	1211
30.07	1239
30.08	1270
30.09	1273
30.1	1246
30.11	1252
30.12	1215
30.13	1172
30.14	1178
30.15	1213
30.16	1198
30.17	1176
30.18	1198
30.19	1191
30.2	1164
30.21	1185
30.22	1142
30.23	1166
30.24	1207
30.25	1244
30.26	1220
30.27	1210
30.28	1166
30.29	1200
30.3	1201
30.31	1205
30.32	1183
30.33	1193
30.34	1187
30.35	1202
30.36	1208
30.37	1194
30.38	1163
30.39	1192
30.4	1217
30.41	1233
30.42	1229
30.43	1222
30.44	1203
30.45	1183
30.46	1215
30.47	1199
30.48	1191
30.49	1205
30.5	1228
30.51	1239
30.52	1210
30.53	1210
30.54	1221
30.55	1197
30.56	1169
30.57	1137
30.58	1183
30.59	1171
30.6	1163
30.61	1202
30.62	1203
30.63	1231
30.64	1194
30.65	1220
30.66	1231
30.67	1190
30.68	1138
30.69	1189
30.7	1210
30.71	1170
30.72	1202
30.73	1184
30.74	1197
30.75	1185
30.76	1186
30.77	1189
30.78	1200
30.79	1186
30.8	1194
30.81	1239
30.82	1211
30.83	1194
30.84	1217
30.85	1228
30.86	1211
30.87	1227
30.88	1198
30.89	1157
30.9	1181
30.91	1239
30.92	1194
30.93	1184
30.94	1170
30.95	1201
30.96	1199
30.97	1145
30.98	1163
30.99	1161
31.0	1123
31.01	1179
31.02	1198
31.03	1165
31.04	1137
31.05	1176
31.06	1159
31.07	1206
31.08	1209
31.09	1170
31.1	1190
31.11	1164
31.12	1205
31.13	1162
31.14	1138
31.15	1153
31.16	1171
31.17	1173
31.18	1193
31.19	1160
31.2	1141
31.21	1156
31.22	1134
31.23	1142
31.24	1161
31.25	1139
31.26	1148
31.27	1183
31.28	1177
31.29	1195
31.3	1232
31.31	1183
31.32	1194
31.33	1167
31.34	1183
31.35	1184
31.36	1184
31.37	1173
31.38	1209
31.39	1218
31.4	1185
31.41	1143
31.42	1158
31.43	1161
31.44	1169
31.45	1165
31.46	1210
31.47	1167
31.48	1134
31.49	1182
31.5	1163
31.51	1127
31.52	1153
31.53	1162
31.54	1192
31.55	1185
31.56	1176
31.57	1144
31.58	1125
31.59	1166
31.6	1186
31.61	1204
31.62	1147
31.63	1166
31.64	1168
31.65	1139
31.66	1122
31.67	1165
31.68	1141
31.69	1143
31.7	1183
31.71	1171
31.72	1171
31.73	1117
31.74	1175
31.75	1197
31.76	1185
31.77	1190
31.78	1158
31.79	1124
31.8	1114
31.81	1118
31.82	1177
31.83	1177
31.84	1181
31.85	1186
31.86	1192
31.87	1158
31.88	1140
31.89	1173
31.9	1180
31.91	1167
31.92	1139
31.93	1128
31.94	1133
31.95	1200
31.96	1176
31.97	1122
31.98	1122
31.99	1159
32.0	1169
32.01	1158
32.02	1160
32.03	1168
32.04	1193
32.05	1191
32.06	1147
32.07	1147
32.08	1162
32.09	1181
32.1	1180
32.11	1155
32.12	1124
32.13	1167
32.14	1161
32.15	1135
32.16	1161
32.17	1134
32.18	1133
32.19	1169
32.2	1224
32.21	1181
32.22	1118
32.23	1167
32.24	1175
32.25	1139
32.26	1110
32.27	1151
32.28	1166
32.29	1166
32.3	1171
32.31	1133
32.32	1118
32.33	1162
32.34	1160
32.35	1136
32.36	1161
32.37	1177
32.38	1124
32.39	1130
32.4	1096
32.41	1104
32.42	1158
32.43	1157
32.44	1141
32.45	1168
32.46	1139
32.47	1136
32.48	1127
32.49	1119
32.5	1136
32.51	1171
32.52	1162
32.53	1159
32.54	1135
32.55	1095
32.56	1121
32.57	1143
32.58	1132
32.59	1133
32.6	1139
32.61	1167
32.62	1156
32.63	1164
32.64	1148
32.65	1167
32.66	1164
32.67	1145
32.68	1145
32.69	1152
32.7	1132
32.71	1129
32.72	1097
32.73	1102
32.74	1138
32.75	1146
32.76	1150
32.77	1118
32.78	1142
32.79	1121
32.8	1086
32.81	1078
32.82	1119
32.83	1095
32.84	1104
32.85	1154
32.86	1121
32.87	1098
32.88	1071
32.89	1071
32.9	1123
32.91	1124
32.92	1133
32.93	1141
32.94	1125
32.95	1127
32.96	1134
32.97	1119
32.98	1112
32.99	1124
33.0	1110
33.01	1114
33.02	1125
33.03	1125
33.04	1114
33.05	1155
33.06	1099
33.07	1100
33.08	1099
33.09	1113
33.1	1125
33.11	1140
33.12	1162
33.13	1172
33.14	1166
33.15	1134
33.16	1141
33.17	1166
33.18	1116
33.19	1107
33.2	1085
33.21	1119
33.22	1145
33.23	1111
33.24	1133
33.25	1128
33.26	1110
33.27	1074
33.28	1093
33.29	1151
33.3	1137
33.31	1090
33.32	1104
33.33	1118
33.34	1120
33.35	1125
33.36	1106
33.37	1103
33.38	1096
33.39	1078
33.4	1117
33.41	1142
33.42	1138
33.43	1113
33.44	1102
33.45	1094
33.46	1115
33.47	1143
33.48	1136
33.49	1105
33.5	1120
33.51	1104
33.52	1116
33.53	1147
33.54	1150
33.55	1102
33.56	1085
33.57	1115
33.58	1134
33.59	1112
33.6	1104
33.61	1157
33.62	1153
33.63	1144
33.64	1143
33.65	1128
33.66	1095
33.67	1140
33.68	1156
33.69	1170
33.7	1149
33.71	1154
33.72	1136
33.73	1160
33.74	1193
33.75	1167
33.76	1139
33.77	1133
33.78	1118
33.79	1102
33.8	1097
33.81	1143
33.82	1113
33.83	1126
33.84	1155
33.85	1175
33.86	1167
33.87	1152
33.88	1133
33.89	1137
33.9	1149
33.91	1132
33.92	1118
33.93	1150
33.94	1162
33.95	1111
33.96	1071
33.97	1086
33.98	1091
33.99	1083
34.0	1087
34.01	1144
34.02	1156
34.03	1139
34.04	1129
34.05	1105
34.06	1075
34.07	1096
34.08	1104
34.09	1107
34.1	1101
34.11	1127
34.12	1148
34.13	1116
34.14	1100
34.15	1115
34.16	1136
34.17	1138
34.18	1108
34.19	1108
34.2	1104
34.21	1105
34.22	1124
34.23	1118
34.24	1100
34.25	1156
34.26	1149
34.27	1147
34.28	1117
34.29	1094
34.3	1104
34.31	1105
34.32	1104
34.33	1108
34.34	1101
34.35	1087
34.36	1096
34.37	1095
34.38	1098
34.39	1097
34.4	1113
34.41	1124
34.42	1124
34.43	1091
34.44	1097
34.45	1153
34.46	1155
34.47	1148
34.48	1161
34.49	1154
34.5	1119
34.51	1112
34.52	1143
34.53	1164
34.54	1157
34.55	1138
34.56	1138
34.57	1149
34.58	1150
34.59	1151
34.6	1177
34.61	1193
34.62	1210
34.63	1238
34.64	1227
34.65	1201
34.66	1200
34.67	1203
34.68	1200
34.69	1207
34.7	1228
34.71	1215
34.72	1205
34.73	1246
34.74	1264
34.75	1265
34.76	1317
34.77	1383
34.78	1425
34.79	1456
34.8	1526
34.81	1626
34.82	1728
34.83	1814
34.84	1938
34.85	2108
34.86	2335
34.87	2625
34.88	2894
34.89	3270
34.9	3755
34.91	4251
34.92	4780
34.93	5397
34.94	5880
34.95	6321
34.96	6565
34.97	6432
34.98	6035
34.99	5602
35.0	5151
35.01	4746
35.02	4427
35.03	4222
35.04	4094
35.05	3935
35.06	3693
35.07	3364
35.08	3014
35.09	2602
35.1	2235
35.11	1967
35.12	1738
35.13	1602
35.14	1526
35.15	1440
35.16	1372
35.17	1338
35.18	1305
35.19	1288
35.2	1300
35.21	1282
35.22	1262
35.23	1249
35.24	1202
35.25	1181
35.26	1182
35.27	1172
35.28	1159
35.29	1156
35.3	1131
35.31	1130
35.32	1174
35.33	1154
35.34	1122
35.35	1132
35.36	1168
35.37	1156
35.38	1124
35.39	1131
35.4	1160
35.41	1159
35.42	1134
35.43	1115
35.44	1112
35.45	1100
35.46	1082
35.47	1110
35.48	1113
35.49	1092
35.5	1103
35.51	1120
35.52	1107
35.53	1082
35.54	1067
35.55	1082
35.56	1099
35.57	1083
35.58	1065
35.59	1100
35.6	1099
35.61	1086
35.62	1096
35.63	1131
35.64	1153
35.65	1143
35.66	1118
35.67	1095
35.68	1087
35.69	1090
35.7	1096
35.71	1109
35.72	1100
35.73	1087
35.74	1094
35.75	1115
35.76	1146
35.77	1127
35.78	1085
35.79	1078
35.8	1109
35.81	1128
35.82	1126
35.83	1116
35.84	1099
35.85	1100
35.86	1117
35.87	1110
35.88	1110
35.89	1124
35.9	1141
35.91	1123
35.92	1088
35.93	1105
35.94	1114
35.95	1106
35.96	1111
35.97	1098
35.98	1102
35.99	1149
36.0	1156
36.01	1116
36.02	1105
36.03	1118
36.04	1146
36.05	1160
36.06	1142
36.07	1137
36.08	1153
36.09	1128
36.1	1097
36.11	1101
36.12	1112
36.13	1141
36.14	1132
36.15	1096
36.16	1101
36.17	1117
36.18	1138
36.19	1111
36.2	1091
36.21	1117
36.22	1100
36.23	1081
36.24	1126
36.25	1168
36.26	1168
36.27	1153
36.28	1122
36.29	1122
36.3	1119
36.31	1104
36.32	1137
36.33	1133
36.34	1105
36.35	1117
36.36	1127
36.37	1118
36.38	1103
36.39	1105
36.4	1136
36.41	1149
36.42	1140
36.43	1125
36.44	1104
36.45	1098
36.46	1100
36.47	1129
36.48	1159
36.49	1140
36.5	1120
36.51	1153
36.52	1170
36.53	1151
36.54	1178
36.55	1185
36.56	1132
36.57	1113
36.58	1154
36.59	1166
36.6	1122
36.61	1124
36.62	1152
36.63	1161
36.64	1189
36.65	1197
36.66	1151
36.67	1137
36.68	1178
36.69	1207
36.7	1198
36.71	1145
36.72	1153
36.73	1211
36.74	1191
36.75	1168
36.76	1187
36.77	1192
36.78	1193
36.79	1194
36.8	1201
36.81	1226
36.82	1256
36.83	1301
36.84	1330
36.85	1302
36.86	1293
36.87	1324
36.88	1369
36.89	1407
36.9	1436
36.91	1472
36.92	1522
36.93	1586
36.94	1628
36.95	1698
36.96	1797
36.97	1875
36.98	1937
36.99	1986
37.0	2046
37.01	2132
37.02	2212
37.03	2236
37.04	2238
37.05	2272
37.06	2257
37.07	2210
37.08	2198
37.09	2131
37.1	2060
37.11	1991
37.12	1918
37.13	1900
37.14	1896
37.15	1843
37.16	1719
37.17	1637
37.18	1621
37.19	1563
37.2	1496
37.21	1439
37.22	1397
37.23	1382
37.24	1392
37.25	1387
37.26	1341
37.27	1334
37.28	1315
37.29	1304
37.3	1293
37.31	1263
37.32	1244
37.33	1231
37.34	1215
37.35	1218
37.36	1224
37.37	1199
37.38	1182
37.39	1191
37.4	1207
37.41	1237
37.42	1250
37.43	1259
37.44	1277
37.45	1276
37.46	1286
37.47	1287
37.48	1268
37.49	1259
37.5	1272
37.51	1300
37.52	1304
37.53	1290
37.54	1281
37.55	1295
37.56	1306
37.57	1292
37.58	1261
37.59	1254
37.6	1288
37.61	1310
37.62	1299
37.63	1294
37.64	1283
37.65	1295
37.66	1303
37.67	1308
37.68	1316
37.69	1347
37.7	1339
37.71	1328
37.72	1344
37.73	1352
37.74	1376
37.75	1379
37.76	1368
37.77	1379
37.78	1400
37.79	1427
37.8	1434
37.81	1446
37.82	1452
37.83	1413
37.84	1389
37.85	1441
37.86	1465
37.87	1459
37.88	1460
37.89	1467
37.9	1468
37.91	1455
37.92	1457
37.93	1475
37.94	1482
37.95	1464
37.96	1416
37.97	1415
37.98	1443
37.99	1462
38.0	1473
38.01	1451
38.02	1409
38.03	1401
38.04	1397
38.05	1373
38.06	1354
38.07	1362
38.08	1369
38.09	1367
38.1	1338
38.11	1288
38.12	1287
38.13	1279
38.14	1284
38.15	1306
38.16	1309
38.17	1317
38.18	1310
38.19	1292
38.2	1282
38.21	1250
38.22	1248
38.23	1284
38.24	1286
38.25	1271
38.26	1268
38.27	1239
38.28	1196
38.29	1212
38.3	1206
38.31	1229
38.32	1269
38.33	1245
38.34	1216
38.35	1231
38.36	1254
38.37	1234
38.38	1233
38.39	1234
38.4	1232
38.41	1225
38.42	1223
38.43	1221
38.44	1197
38.45	1167
38.46	1162
38.47	1173
38.48	1178
38.49	1177
38.5	1184
38.51	1206
38.52	1186
38.53	1213
38.54	1226
38.55	1228
38.56	1205
38.57	1229
38.58	1264
38.59	1256
38.6	1287
38.61	1293
38.62	1280
38.63	1269
38.64	1286
38.65	1289
38.66	1323
38.67	1314
38.68	1282
38.69	1291
38.7	1310
38.71	1297
38.72	1288
38.73	1269
38.74	1246
38.75	1253
38.76	1252
38.77	1249
38.78	1238
38.79	1237
38.8	1224
38.81	1222
38.82	1223
38.83	1206
38.84	1204
38.85	1198
38.86	1156
38.87	1131
38.88	1151
38.89	1174
38.9	1157
38.91	1118
38.92	1103
38.93	1144
38.94	1132
38.95	1126
38.96	1148
38.97	1140
38.98	1074
38.99	1074
39.0	1077
39.01	1099
39.02	1121
39.03	1114
39.04	1101
39.05	1113
39.06	1101
39.07	1106
39.08	1114
39.09	1146
39.1	1123
39.11	1093
39.12	1120
39.13	1122
39.14	1112
39.15	1110
39.16	1095
39.17	1099
39.18	1099
39.19	1121
39.2	1150
39.21	1119
39.22	1079
39.23	1132
39.24	1132
39.25	1102
39.26	1052
39.27	1046
39.28	1057
39.29	1051
39.3	1044
39.31	1077
39.32	1103
39.33	1107
39.34	1113
39.35	1074
39.36	1084
39.37	1076
39.38	1082
39.39	1086
39.4	1069
39.41	1073
39.42	1090
39.43	1098
39.44	1111
39.45	1093
39.46	1066
39.47	1071
39.48	1091
39.49	1103
39.5	1098
39.51	1099
39.52	1086
39.53	1106
39.54	1102
39.55	1082
39.56	1055
39.57	1058
39.58	1094
39.59	1104
39.6	1072
39.61	1046
39.62	1076
39.63	1039
39.64	1081
39.65	1083
39.66	1069
39.67	1082
39.68	1079
39.69	1093
39.7	1111
39.71	1096
39.72	1036
39.73	1053
39.74	1078
39.75	1081
39.76	1077
39.77	1090
39.78	1097
39.79	1041
39.8	1034
39.81	1030
39.82	1045
39.83	1082
39.84	1094
39.85	1091
39.86	1070
39.87	1049
39.88	1045
39.89	1043
39.9	1099
39.91	1080
39.92	1058
39.93	1078
39.94	1092
39.95	1067
39.96	1054
39.97	1081
39.98	1093
39.99	1077
40.0	1099
40.01	1075
40.02	1094
40.03	1119
40.04	1116
40.05	1104
40.06	1142
40.07	1144
40.08	1140
40.09	1122
40.1	1125
40.11	1124
40.12	1129
40.13	1136
40.14	1111
40.15	1137
40.16	1180
40.17	1159
40.18	1147
40.19	1164
40.2	1187
40.21	1212
40.22	1222
40.23	1219
40.24	1241
40.25	1255
40.26	1262
40.27	1250
40.28	1269
40.29	1297
40.3	1304
40.31	1334
40.32	1343
40.33	1354
40.34	1399
40.35	1400
40.36	1435
40.37	1472
40.38	1495
40.39	1558
40.4	1594
40.41	1654
40.42	1748
40.43	1887
40.44	2033
40.45	2177
40.46	2433
40.47	2660
40.48	3044
40.49	3483
40.5	3992
40.51	4665
40.52	5481
40.53	6455
40.54	7535
40.55	8674
40.56	9824
40.57	10628
40.58	11177
40.59	11283
40.6	10923
40.61	10174
40.62	9106
40.63	8170
40.64	7340
40.65	7050
40.66	6905
40.67	6893
40.68	6763
40.69	6632
40.7	6296
40.71	5850
40.72	5147
40.73	4451
40.74	3728
40.75	3124
40.76	2627
40.77	2253
40.78	2042
40.79	1849
40.8	1735
40.81	1649
40.82	1561
40.83	1479
40.84	1442
40.85	1444
40.86	1406
40.87	1348
40.88	1382
40.89	1314
40.9	1313
40.91	1307
40.92	1260
40.93	1270
40.94	1290
40.95	1324
40.96	1287
40.97	1232
40.98	1188
40.99	1155
41.0	1139
41.01	1154
41.02	1189
41.03	1170
41.04	1153
41.05	1144
41.06	1115
41.07	1109
41.08	1108
41.09	1100
41.1	1127
41.11	1101
41.12	1121
41.13	1102
41.14	1135
41.15	1159
41.16	1117
41.17	1082
41.18	1071
41.19	1054
41.2	1053
41.21	1081
41.22	1046
41.23	1062
41.24	1081
41.25	1097
41.26	1061
41.27	1087
41.28	1072
41.29	1070
41.3	1079
41.31	1063
41.32	1028
41.33	1029
41.34	1043
41.35	1052
41.36	1094
41.37	1059
41.38	1043
41.39	1050
41.4	1069
41.41	1097
41.42	1096
41.43	1084
41.44	1081
41.45	1069
41.46	1063
41.47	1077
41.48	1089
41.49	1054
41.5	1063
41.51	1094
41.52	1065
41.53	1056
41.54	1023
41.55	1053
41.56	1090
41.57	1056
41.58	1040
41.59	1081
41.6	1092
41.61	1051
41.62	1018
41.63	1082
41.64	1074
41.65	1025
41.66	1029
41.67	1045
41.68	1011
41.69	1003
41.7	1009
41.71	996
41.72	1014
41.73	1016
41.74	1041
41.75	993
41.76	1007
41.77	1045
41.78	1063
41.79	1047
41.8	1019
41.81	1006
41.82	1024
41.83	1052
41.84	1039
41.85	999
41.86	1004
41.87	1028
41.88	1001
41.89	1039
41.9	1047
41.91	1091
41.92	1050
41.93	990
41.94	1044
41.95	1026
41.96	1016
41.97	1005
41.98	1001
41.99	1011
42.0	1015
42.01	1013
42.02	1057
42.03	1053
42.04	1011
42.05	1031
42.06	1016
42.07	1056
42.08	1046
42.09	995
42.1	971
42.11	995
42.12	1022
42.13	1066
42.14	1049
42.15	1077
42.16	1051
42.17	1051
42.18	991
42.19	982
42.2	1042
42.21	1015
42.22	1013
42.23	1053
42.24	1022
42.25	999
42.26	968
42.27	1014
42.28	1038
42.29	1041
42.3	1059
42.31	1057
42.32	1102
42.33	1064
42.34	1063
42.35	1012
42.36	1048
42.37	1056
42.38	1065
42.39	1063
42.4	1029
42.41	1025
42.42	1033
42.43	1027
42.44	1007
42.45	1067
42.46	1089
42.47	1077
42.48	1036
42.49	1025
42.5	1055
42.51	1051
42.52	1063
42.53	1079
42.54	1065
42.55	1048
42.56	1051
42.57	1032
42.58	1001
42.59	1016
42.6	1040
42.61	1047
42.62	1043
42.63	1018
42.64	1015
42.65	1006
42.66	1015
42.67	1023
42.68	1041
42.69	1064
42.7	1064
42.71	1031
42.72	1018
42.73	1016
42.74	1043
42.75	1065
42.76	1049
42.77	1027
42.78	1029
42.79	1039
42.8	1048
42.81	1044
42.82	1079
42.83	1077
42.84	1066
42.85	1040
42.86	1045
42.87	1067
42.88	1058
42.89	1024
42.9	1025
42.91	1036
42.92	1011
42.93	1026
42.94	1027
42.95	1057
42.96	1063
42.97	1049
42.98	1031
42.99	979
43.0	981
43.01	1017
43.02	1042
43.03	1055
43.04	1031
43.05	1035
43.06	1026
43.07	1046
43.08	1048
43.09	1015
43.1	1018
43.11	1050
43.12	1027
43.13	1054
43.14	1062
43.15	1069
43.16	1056
43.17	1089
43.18	1045
43.19	1050
43.2	1079
43.21	1093
43.22	1049
43.23	1068
43.24	1089
43.25	1077
43.26	1060
43.27	1034
43.28	1060
43.29	1046
43.3	1030
43.31	1054
43.32	1021
43.33	1003
43.34	1008
43.35	1057
43.36	1069
43.37	1062
43.38	1069
43.39	1059
43.4	1069
43.41	1069
43.42	1033
43.43	1039
43.44	1028
43.45	1049
43.46	1059
43.47	1027
43.48	1032
43.49	1046
43.5	1060
43.51	1048
43.52	1042
43.53	1042
43.54	1025
43.55	1062
43.56	1034
43.57	1021
43.58	1002
43.59	1039
43.6	1022
43.61	1059
43.62	1047
43.63	1030
43.64	1039
43.65	1050
43.66	1049
43.67	1027
43.68	1048
43.69	1045
43.7	1046
43.71	1063
43.72	1036
43.73	1040
43.74	1057
43.75	1038
43.76	1017
43.77	1039
43.78	1033
43.79	1026
43.8	1042
43.81	1045
43.82	1036
43.83	1053
43.84	1044
43.85	1033
43.86	1022
43.87	1048
43.88	1049
43.89	1017
43.9	1029
43.91	1086
43.92	1055
43.93	1061
43.94	1083
43.95	1054
43.96	1028
43.97	1045
43.98	1052
43.99	1063
44.0	1051
44.01	1011
44.02	1041
44.03	1050
44.04	1058
44.05	1006
44.06	985
44.07	1020
44.08	1046
44.09	1061
44.1	1071
44.11	1068
44.12	1073
44.13	1063
44.14	1075
44.15	1058
44.16	1047
44.17	1057
44.18	1060
44.19	1079
44.2	1082
44.21	1082
44.22	1075
44.23	1089
44.24	1074
44.25	1087
44.26	1120
44.27	1108
44.28	1134
44.29	1104
44.3	1111
44.31	1104
44.32	1116
44.33	1132
44.34	1179
44.35	1188
44.36	1172
44.37	1194
44.38	1201
44.39	1155
44.4	1189
44.41	1221
44.42	1225
44.43	1227
44.44	1252
44.45	1224
44.46	1228
44.47	1318
44.48	1336
44.49	1379
44.5	1398
44.51	1455
44.52	1522
44.53	1555
44.54	1565
44.55	1608
44.56	1711
44.57	1778
44.58	1838
44.59	1941
44.6	1994
44.61	2066
44.62	2211
44.63	2425
44.64	2533
44.65	2696
44.66	2816
44.67	2945
44.68	3038
44.69	3242
44.7	3433
44.71	3496
44.72	3575
44.73	3685
44.74	3774
44.75	3926
44.76	3995
44.77	3994
44.78	3937
44.79	3883
44.8	3867
44.81	3846
44.82	3731
44.83	3630
44.84	3522
44.85	3410
44.86	3236
44.87	3107
44.88	3030
44.89	2953
44.9	2846
44.91	2751
44.92	2636
44.93	2428
44.94	2293
44.95	2198
44.96	2041
44.97	1961
44.98	1911
44.99	1818
45.0	1700
45.01	1584
45.02	1549
45.03	1466
45.04	1425
45.05	1425
45.06	1412
45.07	1380
45.08	1304
45.09	1282
45.1	1265
45.11	1243
45.12	1223
45.13	1193
45.14	1179
45.15	1181
45.16	1188
45.17	1170
45.18	1148
45.19	1160
45.2	1138
45.21	1079
45.22	1092
45.23	1101
45.24	1109
45.25	1125
45.26	1089
45.27	1079
45.28	1071
45.29	1069
45.3	1068
45.31	1072
45.32	1093
45.33	1069
45.34	1054
45.35	1058
45.36	1055
45.37	1075
45.38	1065
45.39	1045
45.4	1042
45.41	1037
45.42	1040
45.43	1045
45.44	1044
45.45	1026
45.46	1014
45.47	1038
45.48	1052
45.49	1046
45.5	1030
45.51	1028
45.52	1044
45.53	1032
45.54	1039
45.55	1050
45.56	1073
45.57	1052
45.58	1027
45.59	1044
45.6	1040
45.61	1032
45.62	1032
45.63	1006
45.64	1010
45.65	1025
45.66	1056
45.67	1059
45.68	1039
45.69	1030
45.7	1028
45.71	1047
45.72	1058
45.73	1029
45.74	1019
45.75	1013
45.76	1012
45.77	1020
45.78	1013
45.79	995
45.8	979
45.81	1010
45.82	1023
45.83	1022
45.84	994
45.85	967
45.86	985
45.87	1018
45.88	1004
45.89	1001
45.9	1009
45.91	1018
45.92	1013
45.93	1017
45.94	1019
45.95	1033
45.96	1028
45.97	1001
45.98	1004
45.99	1030
46.0	1015
46.01	1018
46.02	1035
46.03	1013
46.04	1020
46.05	1021
46.06	1039
46.07	1030
46.08	1028
46.09	1013
46.1	1016
46.11	1044
46.12	1077
46.13	1063
46.14	999
46.15	974
46.16	1004
46.17	1011
46.18	999
46.19	988
46.2	1030
46.21	1032
46.22	1024
46.23	1014
46.24	1020
46.25	999
46.26	1016
46.27	1042
46.28	1058
46.29	1051
46.3	1033
46.31	1026
46.32	1027
46.33	1019
46.34	1003
46.35	1009
46.36	1020
46.37	995
46.38	1010
46.39	1026
46.4	1002
46.41	1027
46.42	1058
46.43	1053
46.44	1065
46.45	1052
46.46	1040
46.47	1042
46.48	1019
46.49	989
46.5	989
46.51	1023
46.52	1027
46.53	1031
46.54	1033
46.55	1020
46.56	1026
46.57	1015
46.58	1030
46.59	1052
46.6	1049
46.61	1039
46.62	1050
46.63	1025
46.64	1019
46.65	1025
46.66	1017
46.67	1027
46.68	1027
46.69	1015
46.7	1049
46.71	1071
46.72	1048
46.73	1022
46.74	1014
46.75	996
46.76	1012
46.77	1035
46.78	1056
46.79	1047
46.8	1026
46.81	1035
46.82	1051
46.83	1024
46.84	1009
46.85	1036
46.86	1055
46.87	1039
46.88	1048
46.89	1034
46.9	1029
46.91	1036
46.92	1041
46.93	1042
46.94	1022
46.95	1004
46.96	1032
46.97	1034
46.98	1044
46.99	1034
47.0	1020
47.01	999
47.02	1026
47.03	1052
47.04	1059
47.05	1062
47.06	1060
47.07	1055
47.08	1036
47.09	1032
47.1	1030
47.11	1040
47.12	1036
47.13	1030
47.14	1038
47.15	1062
47.16	1071
47.17	1026
47.18	1043
47.19	1072
47.2	1072
47.21	1076
47.22	1075
47.23	1078
47.24	1040
47.25	1035
47.26	1052
47.27	1043
47.28	1060
47.29	1081
47.3	1090
47.31	1098
47.32	1091
47.33	1056
47.34	1065
47.35	1088
47.36	1087
47.37	1106
47.38	1137
47.39	1126
47.4	1098
47.41	1094
47.42	1118
47.43	1138
47.44	1120
47.45	1104
47.46	1090
47.47	1091
47.48	1104
47.49	1133
47.5	1118
47.51	1115
47.52	1109
47.53	1105
47.54	1124
47.55	1156
47.56	1186
47.57	1177
47.58	1189
47.59	1203
47.6	1187
47.61	1198
47.62	1215
47.63	1173
47.64	1186
47.65	1255
47.66	1249
47.67	1197
47.68	1234
47.69	1256
47.7	1248
47.71	1280
47.72	1295
47.73	1294
47.74	1322
47.75	1344
47.76	1342
47.77	1337
47.78	1342
47.79	1357
47.8	1404
47.81	1407
47.82	1395
47.83	1419
47.84	1442
47.85	1424
47.86	1394
47.87	1422
47.88	1450
47.89	1459
47.9	1456
47.91	1435
47.92	1474
47.93	1533
47.94	1507
47.95	1493
47.96	1505
47.97	1537
47.98	1597
47.99	1604
48.0	1571
48.01	1542
48.02	1555
48.03	1576
48.04	1558
48.05	1543
48.06	1556
48.07	1585
48.08	1578
48.09	1552
48.1	1561
48.11	1571
48.12	1557
48.13	1571
48.14	1587
48.15	1588
48.16	1574
48.17	1540
48.18	1539
48.19	1552
48.2	1530
48.21	1508
48.22	1505
48.23	1523
48.24	1498
48.25	1464
48.26	1476
48.27	1479
48.28	1476
48.29	1454
48.3	1428
48.31	1443
48.32	1454
48.33	1399
48.34	1354
48.35	1367
48.36	1361
48.37	1332
48.38	1335
48.39	1333
48.4	1307
48.41	1315
48.42	1334
48.43	1340
48.44	1327
48.45	1287
48.46	1280
48.47	1251
48.48	1205
48.49	1219
48.5	1264
48.51	1260
48.52	1243
48.53	1209
48.54	1200
48.55	1214
48.56	1218
48.57	1187
48.58	1147
48.59	1136
48.6	1158
48.61	1171
48.62	1166
48.63	1151
48.64	1164
48.65	1170
48.66	1165
48.67	1195
48.68	1168
48.69	1167
48.7	1166
48.71	1149
48.72	1144
48.73	1168
48.74	1209
48.75	1181
48.76	1137
48.77	1139
48.78	1174
48.79	1200
48.8	1224
48.81	1260
48.82	1288
48.83	1283
48.84	1268
48.85	1278
48.86	1325
48.87	1342
48.88	1325
48.89	1327
48.9	1342
48.91	1352
48.92	1314
48.93	1301
48.94	1327
48.95	1348
48.96	1341
48.97	1289
48.98	1259
48.99	1256
49.0	1272
49.01	1267
49.02	1235
49.03	1217
49.04	1221
49.05	1208
49.06	1159
49.07	1120
49.08	1138
49.09	1159
49.1	1158
49.11	1162
49.12	1159
49.13	1154
49.14	1120
49.15	1093
49.16	1085
49.17	1080
49.18	1089
49.19	1086
49.2	1090
49.21	1083
49.22	1059
49.23	1059
49.24	1068
49.25	1059
49.26	1055
49.27	1039
49.28	1026
49.29	1025
49.3	1029
49.31	1054
49.32	1055
49.33	1016
49.34	988
49.35	1007
49.36	1014
49.37	1017
49.38	1041
49.39	1060
49.4	1075
49.41	1073
49.42	1050
49.43	1030
49.44	1019
49.45	1011
49.46	1003
49.47	991
49.48	990
49.49	1018
49.5	1011
49.51	1002
49.52	1016
49.53	1015
49.54	1026
49.55	1024
49.56	1002
49.57	988
49.58	984
49.59	995
49.6	1008
49.61	996
49.62	980
49.63	975
49.64	983
49.65	999
49.66	1014
49.67	1030
49.68	1022
49.69	1001
49.7	991
49.71	984
49.72	991
49.73	1009
49.74	987
49.75	980
49.76	986
49.77	993
49.78	1014
49.79	1014
49.8	998
49.81	973
49.82	976
49.83	1001
49.84	1007
49.85	1001
49.86	999
49.87	998
49.88	1018
49.89	1009
49.9	991
49.91	996
49.92	994
49.93	1006
49.94	1011
49.95	1019
49.96	1036
49.97	1016
49.98	1014
49.99	1022
50.0	1017
50.01	1016
50.02	1008
50.03	1014
50.04	1042
50.05	1068
50.06	1052
50.07	1028
50.08	1023
50.09	1015
50.1	1002
50.11	986
50.12	993
50.13	1003
50.14	988
50.15	991
50.16	1007
50.17	1004
50.18	1011
50.19	1023
50.2	1019
50.21	1026
50.22	1011
50.23	973
50.24	979
50.25	1004
50.26	1000
50.27	1007
50.28	1026
50.29	1005
50.3	991
50.31	1026
50.32	1036
50.33	1017
50.34	1021
50.35	990
50.36	972
50.37	1007
50.38	1030
50.39	1022
50.4	1009
50.41	1006
50.42	1002
50.43	986
50.44	957
50.45	966
50.46	1000
50.47	1004
50.48	1009
50.49	1019
50.5	999
50.51	973
50.52	970
50.53	953
50.54	951
50.55	984
50.56	1002
50.57	985
50.58	979
50.59	990
50.6	1015
50.61	1003
50.62	967
50.63	1000
50.64	1028
50.65	1020
50.66	1014
50.67	1014
50.68	1017
50.69	1035
50.7	1031
50.71	1001
50.72	993
50.73	999
50.74	1011
50.75	1028
50.76	1036
50.77	1006
50.78	981
50.79	995
50.8	1009
50.81	998
50.82	974
50.83	981
50.84	1001
50.85	1019
50.86	1036
50.87	1034
50.88	1019
50.89	1019
50.9	1007
50.91	957
50.92	963
50.93	1009
50.94	1019
50.95	998
50.96	973
50.97	986
50.98	1006
50.99	1012
51.0	1023
51.01	983
51.02	941
51.03	976
51.04	982
51.05	950
51.06	981
51.07	1023
51.08	1027
51.09	1017
51.1	984
51.11	986
51.12	1025
51.13	1021
51.14	993
51.15	967
51.16	969
51.17	987
51.18	991
51.19	983
51.2	985
51.21	996
51.22	980
51.23	963
51.24	994
51.25	1016
51.26	1021
51.27	1017
51.28	999
51.29	1003
51.3	1002
51.31	1007
51.32	997
51.33	982
51.34	990
51.35	987
51.36	970
51.37	976
51.38	999
51.39	1010
51.4	999
51.41	984
51.42	982
51.43	998
51.44	1022
51.45	1023
51.46	1011
51.47	1002
51.48	987
51.49	1014
51.5	1015
51.51	975
51.52	961
51.53	977
51.54	993
51.55	989
51.56	983
51.57	1001
51.58	1015
51.59	994
51.6	990
51.61	1018
51.62	1018
51.63	1006
51.64	996
51.65	989
51.66	1006
51.67	1010
51.68	999
51.69	1000
51.7	985
51.71	976
51.72	990
51.73	1008
51.74	1013
51.75	1018
51.76	1017
51.77	995
51.78	988
51.79	990
51.8	1006
51.81	1017
51.82	990
51.83	982
51.84	994
51.85	981
51.86	987
51.87	972
51.88	994
51.89	1044
51.9	1032
51.91	1030
51.92	1026
51.93	1009
51.94	1005
51.95	997
51.96	980
51.97	959
51.98	998
51.99	1053
52.0	1021
52.01	989
52.02	1008
52.03	995
52.04	973
52.05	988
52.06	1024
52.07	1037
52.08	1012
52.09	1003
52.1	999
52.11	984
52.12	992
52.13	1011
52.14	1013
52.15	991
52.16	969
52.17	993
52.18	1029
52.19	1017
52.2	1013
52.21	1019
52.22	1011
52.23	1018
52.24	1028
52.25	1026
52.26	1000
52.27	991
52.28	998
52.29	997
52.3	1003
52.31	1024
52.32	1057
52.33	1055
52.34	1021
52.35	1021
52.36	1032
52.37	1038
52.38	1030
52.39	1003
52.4	1015
52.41	1030
52.42	1023
52.43	1005
52.44	983
52.45	989
52.46	987
52.47	979
52.48	987
52.49	1011
52.5	1047
52.51	1040
52.52	1035
52.53	1036
52.54	1023
52.55	1002
52.56	984
52.57	1006
52.58	1032
52.59	1041
52.6	1064
52.61	1076
52.62	1058
52.63	1023
52.64	1018
52.65	1043
52.66	1039
52.67	1032
52.68	1062
52.69	1055
52.7	1020
52.71	1028
52.72	1039
52.73	1022
52.74	1027
52.75	1051
52.76	1046
52.77	1042
52.78	1031
52.79	1012
52.8	1003
52.81	1005
52.82	1014
52.83	1020
52.84	1009
52.85	1008
52.86	1023
52.87	1021
52.88	1021
52.89	1023
52.9	1008
52.91	1017
52.92	1046
52.93	1066
52.94	1056
52.95	1061
52.96	1056
52.97	1041
52.98	1051
52.99	1046
53.0	1054
53.01	1051
53.02	1027
53.03	1041
53.04	1055
53.05	1059
53.06	1073
53.07	1062
53.08	1040
53.09	1047
53.1	1047
53.11	1035
53.12	1062
53.13	1086
53.14	1072
53.15	1071
53.16	1093
53.17	1109
53.18	1088
53.19	1053
53.2	1067
53.21	1087
53.22	1103
53.23	1077
53.24	1075
53.25	1115
53.26	1111
53.27	1078
53.28	1078
53.29	1082
53.3	1076
53.31	1085
53.32	1091
53.33	1103
53.34	1089
53.35	1078
53.36	1092
53.37	1103
53.38	1104
53.39	1095
53.4	1089
53.41	1094
53.42	1143
53.43	1179
53.44	1139
53.45	1110
53.46	1124
53.47	1147
53.48	1146
53.49	1139
53.5	1129
53.51	1117
53.52	1137
53.53	1157
53.54	1178
53.55	1188
53.56	1185
53.57	1195
53.58	1201
53.59	1197
53.6	1185
53.61	1200
53.62	1199
53.63	1192
53.64	1221
53.65	1208
53.66	1194
53.67	1197
53.68	1184
53.69	1209
53.7	1258
53.71	1254
53.72	1257
53.73	1294
53.74	1292
53.75	1254
53.76	1236
53.77	1270
53.78	1299
53.79	1321
53.8	1317
53.81	1319
53.82	1306
53.83	1286
53.84	1295
53.85	1296
53.86	1286
53.87	1297
53.88	1314
53.89	1320
53.9	1332
53.91	1327
53.92	1340
53.93	1367
53.94	1360
53.95	1355
53.96	1384
53.97	1397
53.98	1379
53.99	1378
54.0	1359
54.01	1339
54.02	1302
54.03	1316
54.04	1376
54.05	1391
54.06	1365
54.07	1346
54.08	1361
54.09	1374
54.1	1353
54.11	1329
54.12	1339
54.13	1372
54.14	1376
54.15	1348
54.16	1321
54.17	1313
54.18	1338
54.19	1329
54.2	1310
54.21	1302
54.22	1273
54.23	1286
54.24	1305
54.25	1316
54.26	1318
54.27	1327
54.28	1335
54.29	1322
54.3	1279
54.31	1280
54.32	1291
54.33	1286
54.34	1306
54.35	1321
54.36	1306
54.37	1288
54.38	1266
54.39	1268
54.4	1278
54.41	1287
54.42	1302
54.43	1298
54.44	1284
54.45	1267
54.46	1274
54.47	1270
54.48	1248
54.49	1226
54.5	1248
54.51	1247
54.52	1232
54.53	1218
54.54	1211
54.55	1240
54.56	1285
54.57	1269
54.58	1208
54.59	1213
54.6	1254
54.61	1260
54.62	1247
54.63	1238
54.64	1224
54.65	1215
54.66	1204
54.67	1234
54.68	1280
54.69	1281
54.7	1253
54.71	1227
54.72	1258
54.73	1290
54.74	1283
54.75	1249
54.76	1225
54.77	1245
54.78	1302
54.79	1295
54.8	1276
54.81	1288
54.82	1293
54.83	1309
54.84	1315
54.85	1303
54.86	1330
54.87	1329
54.88	1299
54.89	1310
54.9	1302
54.91	1309
54.92	1348
54.93	1370
54.94	1353
54.95	1332
54.96	1364
54.97	1392
54.98	1368
54.99	1343
55.0	1339
55.01	1363
55.02	1350
55.03	1350
55.04	1382
55.05	1390
55.06	1376
55.07	1355
55.08	1352
55.09	1358
55.1	1356
55.11	1379
55.12	1390
55.13	1351
55.14	1325
55.15	1330
55.16	1349
55.17	1358
55.18	1335
55.19	1341
55.2	1382
55.21	1361
55.22	1333
55.23	1332
55.24	1346
55.25	1347
55.26	1325
55.27	1333
55.28	1341
55.29	1324
55.3	1335
55.31	1324
55.32	1322
55.33	1303
55.34	1302
55.35	1277
55.36	1277
55.37	1287
55.38	1275
55.39	1252
55.4	1246
55.41	1253
55.42	1236
55.43	1216
55.44	1201
55.45	1214
55.46	1249
55.47	1216
55.48	1203
55.49	1210
55.5	1190
55.51	1188
55.52	1208
55.53	1194
55.54	1165
55.55	1152
55.56	1170
55.57	1178
55.58	1151
55.59	1131
55.6	1142
55.61	1155
55.62	1155
55.63	1126
55.64	1113
55.65	1111
55.66	1122
55.67	1138
55.68	1133
55.69	1109
55.7	1102
55.71	1086
55.72	1114
55.73	1131
55.74	1107
55.75	1091
55.76	1110
55.77	1130
55.78	1104
55.79	1113
55.8	1113
55.81	1112
55.82	1106
55.83	1080
55.84	1066
55.85	1066
55.86	1060
55.87	1060
55.88	1059
55.89	1060
55.9	1051
55.91	1087
55.92	1083
55.93	1055
55.94	1075
55.95	1094
55.96	1090
55.97	1056
55.98	1027
55.99	1039
56.0	1052
56.01	1067
56.02	1045
56.03	1008
56.04	1036
56.05	1066
56.06	1060
56.07	1053
56.08	1043
56.09	1050
56.1	1075
56.11	1074
56.12	1040
56.13	1028
56.14	1032
56.15	1039
56.16	1026
56.17	1040
56.18	1027
56.19	1010
56.2	1049
56.21	1088
56.22	1077
56.23	1041
56.24	1011
56.25	1014
56.26	1041
56.27	1052
56.28	1042
56.29	1037
56.3	1039
56.31	1041
56.32	1045
56.33	1022
56.34	1022
56.35	1042
56.36	1059
56.37	1061
56.38	1051
56.39	1031
56.4	1056
56.41	1069
56.42	1070
56.43	1067
56.44	1045
56.45	1030
56.46	1057
56.47	1066
56.48	1028
56.49	1004
56.5	1016
56.51	1058
56.52	1082
56.53	1089
56.54	1094
56.55	1095
56.56	1105
56.57	1068
56.58	1048
56.59	1049
56.6	1081
56.61	1105
56.62	1103
56.63	1087
56.64	1059
56.65	1055
56.66	1089
56.67	1102
56.68	1075
56.69	1060
56.7	1074
56.71	1070
56.72	1074
56.73	1070
56.74	1075
56.75	1056
56.76	1056
56.77	1072
56.78	1069
56.79	1037
56.8	1050
56.81	1083
56.82	1060
56.83	1071
56.84	1091
56.85	1084
56.86	1076
56.87	1044
56.88	1028
56.89	1072
56.9	1069
56.91	1068
56.92	1085
56.93	1097
56.94	1082
56.95	1099
56.96	1103
56.97	1098
56.98	1080
56.99	1074
57.0	1047
57.01	1045
57.02	1059
57.03	1084
57.04	1082
57.05	1079
57.06	1078
57.07	1064
57.08	1052
57.09	1078
57.1	1115
57.11	1112
57.12	1119
57.13	1108
57.14	1113
57.15	1111
57.16	1095
57.17	1092
57.18	1101
57.19	1107
57.2	1097
57.21	1072
57.22	1100
57.23	1131
57.24	1112
57.25	1096
57.26	1102
57.27	1121
57.28	1136
57.29	1116
57.3	1102
57.31	1117
57.32	1120
57.33	1087
57.34	1084
57.35	1114
57.36	1118
57.37	1072
57.38	1091
57.39	1108
57.4	1107
57.41	1113
57.42	1146
57.43	1128
57.44	1129
57.45	1116
57.46	1109
57.47	1113
57.48	1087
57.49	1114
57.5	1131
57.51	1121
57.52	1120
57.53	1103
57.54	1102
57.55	1104
57.56	1091
57.57	1080
57.58	1079
57.59	1077
57.6	1105
57.61	1124
57.62	1091
57.63	1060
57.64	1085
57.65	1081
57.66	1091
57.67	1064
57.68	1061
57.69	1082
57.7	1124
57.71	1128
57.72	1091
57.73	1088
57.74	1073
57.75	1053
57.76	1050
57.77	1073
57.78	1077
57.79	1097
57.8	1104
57.81	1108
57.82	1071
57.83	1064
57.84	1067
57.85	1086
57.86	1099
57.87	1102
57.88	1093
57.89	1105
57.9	1084
57.91	1072
57.92	1083
57.93	1078
57.94	1080
57.95	1049
57.96	1059
57.97	1100
57.98	1100
57.99	1084
58.0	1110
58.01	1112
58.02	1068
58.03	1065
58.04	1084
58.05	1099
58.06	1135
58.07	1115
58.08	1098
58.09	1086
58.1	1080
58.11	1114
58.12	1118
58.13	1096
58.14	1057
58.15	1092
58.16	1146
58.17	1137
58.18	1110
58.19	1135
58.2	1153
58.21	1130
58.22	1116
58.23	1114
58.24	1138
58.25	1149
58.26	1131
58.27	1115
58.28	1173
58.29	1177
58.3	1193
58.31	1202
58.32	1163
58.33	1169
58.34	1207
58.35	1227
58.36	1242
58.37	1262
58.38	1229
58.39	1251
58.4	1290
58.41	1299
58.42	1322
58.43	1337
58.44	1303
58.45	1309
58.46	1323
58.47	1348
58.48	1354
58.49	1402
58.5	1422
58.51	1440
58.52	1456
58.53	1494
58.54	1549
58.55	1547
58.56	1577
58.57	1671
58.58	1789
58.59	1891
58.6	2001
58.61	2098
58.62	2297
58.63	2588
58.64	2902
58.65	3316
58.66	3848
58.67	4370
58.68	4992
58.69	5662
58.7	6354
58.71	6936
58.72	7229
58.73	7244
58.74	7033
58.75	6529
58.76	5838
58.77	5184
58.78	4576
58.79	4072
58.8	3767
58.81	3638
58.82	3608
58.83	3721
58.84	3882
58.85	4112
58.86	4360
58.87	4548
58.88	4706
58.89	4711
58.9	4472
58.91	4176
58.92	3797
58.93	3362
58.94	3013
58.95	2727
58.96	2502
58.97	2308
58.98	2142
58.99	2004
59.0	1929
59.01	1847
59.02	1796
59.03	1736
59.04	1702
59.05	1638
59.06	1579
59.07	1593
59.08	1549
59.09	1512
59.1	1488
59.11	1504
59.12	1475
59.13	1380
59.14	1376
59.15	1372
59.16	1346
59.17	1363
59.18	1343
59.19	1288
59.2	1269
59.21	1254
59.22	1244
59.23	1258
59.24	1268
59.25	1225
59.26	1169
59.27	1173
59.28	1166
59.29	1148
59.3	1144
59.31	1155
59.32	1185
59.33	1150
59.34	1130
59.35	1144
59.36	1114
59.37	1130
59.38	1105
59.39	1065
59.4	1054
59.41	1087
59.42	1113
59.43	1088
59.44	1070
59.45	1084
59.46	1109
59.47	1128
59.48	1114
59.49	1076
59.5	1091
59.51	1057
59.52	1060
59.53	1063
59.54	1076
59.55	1102
59.56	1081
59.57	1101
59.58	1117
59.59	1093
59.6	1062
59.61	1029
59.62	1019
59.63	1065
59.64	1092
59.65	1109
59.66	1085
59.67	1049
59.68	1065
59.69	1064
59.7	1072
59.71	1065
59.72	1037
59.73	1038
59.74	1022
59.75	1043
59.76	1067
59.77	1035
59.78	1030
59.79	1075
59.8	1059
59.81	1078
59.82	1085
59.83	1103
59.84	1111
59.85	1084
59.86	1072
59.87	1050
59.88	1045
59.89	1039
59.9	1048
59.91	1089
59.92	1099
59.93	1107
59.94	1086
59.95	1060
59.96	1048
59.97	1040
59.98	1058
59.99	1055
60.0	1074
60.01	1082
60.02	1087
60.03	1081
60.04	1051
60.05	1018
60.06	1039
60.07	1066
60.08	1061
60.09	1052
60.1	1063
60.11	1092
60.12	1044
60.13	1056
60.14	1037
60.15	1074
60.16	1051
60.17	1098
60.18	1080
60.19	1021
60.2	997
60.21	1013
60.22	1053
60.23	1048
60.24	1023
60.25	1059
60.26	1068
60.27	1063
60.28	1066
60.29	1048
60.3	1047
60.31	1053
60.32	1091
60.33	1058
60.34	1060
60.35	1094
60.36	1069
60.37	1062
60.38	1034
60.39	1084
60.4	1082
60.41	1091
60.42	1079
60.43	1047
60.44	1044
60.45	1069
60.46	1070
60.47	1060
60.48	1040
60.49	1073
60.5	1089
60.51	1072
60.52	1043
60.53	1056
60.54	1012
60.55	1025
60.56	1052
60.57	1040
60.58	1082
60.59	1097
60.6	1074
60.61	1053
60.62	1058
60.63	1041
60.64	1035
60.65	1060
60.66	1048
60.67	1046
60.68	1075
60.69	1069
60.7	1071
60.71	1058
60.72	1044
60.73	1049
60.74	1063
60.75	1062
60.76	1099
60.77	1046
60.78	1013
60.79	1049
60.8	1073
60.81	1111
60.82	1083
60.83	1081
60.84	1076
60.85	1063
60.86	1047
60.87	1059
60.88	1056
60.89	1039
60.9	1024
60.91	1045
60.92	1079
60.93	1063
60.94	1042
60.95	1034
60.96	1051
60.97	1060
60.98	1060
60.99	1063
61.0	1110
61.01	1062
61.02	1049
61.03	1104
61.04	1077
61.05	1044
61.06	1053
61.07	1048
61.08	1035
61.09	1044
61.1	1061
61.11	1057
61.12	1067
61.13	1052
61.14	1042
61.15	1049
61.16	1094
61.17	1048
61.18	1037
61.19	1083
61.2	1071
61.21	1054
61.22	1041
61.23	1063
61.24	1061
61.25	1050
61.26	1072
61.27	1083
61.28	1054
61.29	1017
61.3	1063
61.31	1085
61.32	1096
61.33	1064
61.34	1022
61.35	1037
61.36	1053
61.37	1054
61.38	1025
61.39	1036
61.4	1066
61.41	1059
61.42	1046
61.43	1025
61.44	1063
61.45	1086
61.46	1075
61.47	1066
61.48	1056
61.49	1067
61.5	1113
61.51	1105
61.52	1058
61.53	1040
61.54	1062
61.55	1075
61.56	1067
61.57	1079
61.58	1085
61.59	1095
61.6	1106
61.61	1102
61.62	1085
61.63	1064
61.64	1064
61.65	1100
61.66	1090
61.67	1089
61.68	1108
61.69	1055
61.7	1067
61.71	1081
61.72	1106
61.73	1116
61.74	1084
61.75	1095
61.76	1071
61.77	1093
61.78	1087
61.79	1063
61.8	1096
61.81	1103
61.82	1097
61.83	1093
61.84	1087
61.85	1081
61.86	1067
61.87	1087
61.88	1058
61.89	1113
61.9	1151
61.91	1151
61.92	1147
61.93	1143
61.94	1134
61.95	1142
61.96	1113
61.97	1082
61.98	1111
61.99	1126
62.0	1150
62.01	1131
62.02	1103
62.03	1123
62.04	1106
62.05	1117
62.06	1166
62.07	1138
62.08	1126
62.09	1144
62.1	1176
62.11	1166
62.12	1154
62.13	1191
62.14	1212
62.15	1172
62.16	1176
62.17	1214
62.18	1185
62.19	1166
62.2	1165
62.21	1188
62.22	1197
62.23	1176
62.24	1222
62.25	1249
62.26	1197
62.27	1183
62.28	1213
62.29	1201
62.3	1236
62.31	1225
62.32	1220
62.33	1251
62.34	1230
62.35	1232
62.36	1245
62.37	1235
62.38	1254
62.39	1268
62.4	1281
62.41	1244
62.42	1211
62.43	1205
62.44	1250
62.45	1238
62.46	1252
62.47	1264
62.48	1248
62.49	1250
62.5	1249
62.51	1277
62.52	1317
62.53	1314
62.54	1287
62.55	1314
62.56	1308
62.57	1307
62.58	1313
62.59	1325
62.6	1288
62.61	1276
62.62	1295
62.63	1324
62.64	1319
62.65	1312
62.66	1324
62.67	1291
62.68	1304
62.69	1314
62.7	1325
62.71	1327
62.72	1307
62.73	1297
62.74	1328
62.75	1310
62.76	1351
62.77	1337
62.78	1295
62.79	1312
62.8	1329
62.81	1307
62.82	1303
62.83	1315
62.84	1339
62.85	1322
62.86	1297
62.87	1271
62.88	1334
62.89	1258
62.9	1239
62.91	1256
62.92	1283
62.93	1264
62.94	1289
62.95	1320
62.96	1311
62.97	1268
62.98	1284
62.99	1266
63.0	1269
63.01	1243
63.02	1247
63.03	1248
63.04	1207
63.05	1228
63.06	1239
63.07	1234
63.08	1236
63.09	1205
63.1	1200
63.11	1186
63.12	1200
63.13	1178
63.14	1193
63.15	1199
63.16	1214
63.17	1239
63.18	1210
63.19	1198
63.2	1221
63.21	1222
63.22	1225
63.23	1203
63.24	1165
63.25	1166
63.26	1179
63.27	1133
63.28	1125
63.29	1118
63.3	1109
63.31	1100
63.32	1145
63.33	1137
63.34	1141
63.35	1167
63.36	1116
63.37	1135
63.38	1132
63.39	1135
63.4	1108
63.41	1123
63.42	1147
63.43	1147
63.44	1141
63.45	1117
63.46	1110
63.47	1128
63.48	1142
63.49	1139
63.5	1111
63.51	1127
63.52	1139
63.53	1107
63.54	1099
63.55	1104
63.56	1066
63.57	1133
63.58	1118
63.59	1128
63.6	1127
63.61	1085
63.62	1079
63.63	1040
63.64	1065
63.65	1080
63.66	1072
63.67	1054
63.68	1091
63.69	1112
63.7	1097
63.71	1123
63.72	1097
63.73	1078
63.74	1101
63.75	1070
63.76	1075
63.77	1086
63.78	1046
63.79	1054
63.8	1062
63.81	1102
63.82	1134
63.83	1102
63.84	1075
63.85	1065
63.86	1065
63.87	1034
63.88	1041
63.89	1109
63.9	1114
63.91	1069
63.92	1037
63.93	1046
63.94	1090
63.95	1067
63.96	1090
63.97	1051
63.98	1028
63.99	1061
64.0	1071
64.01	1060
64.02	1087
64.03	1122
64.04	1062
64.05	1057
64.06	1041
64.07	1014
64.08	1061
64.09	1099
64.1	1099
64.11	1073
64.12	1052
64.13	1058
64.14	1054
64.15	1069
64.16	1076
64.17	1088
64.18	1061
64.19	1089
64.2	1085
64.21	1056
64.22	1112
64.23	1116
64.24	1107
64.25	1097
64.26	1122
64.27	1123
64.28	1111
64.29	1133
64.3	1142
64.31	1169
64.32	1182
64.33	1198
64.34	1159
64.35	1143
64.36	1210
64.37	1202
64.38	1168
64.39	1181
64.4	1213
64.41	1213
64.42	1229
64.43	1267
64.44	1312
64.45	1286
64.46	1287
64.47	1284
64.48	1303
64.49	1365
64.5	1404
64.51	1440
64.52	1497
64.53	1528
64.54	1547
64.55	1575
64.56	1565
64.57	1584
64.58	1635
64.59	1700
64.6	1751
64.61	1695
64.62	1663
64.63	1739
64.64	1746
64.65	1695
64.66	1681
64.67	1728
64.68	1688
64.69	1675
64.7	1677
64.71	1630
64.72	1626
64.73	1654
64.74	1650
64.75	1617
64.76	1553
64.77	1566
64.78	1546
64.79	1532
64.8	1521
64.81	1518
64.82	1546
64.83	1499
64.84	1434
64.85	1430
64.86	1426
64.87	1410
64.88	1375
64.89	1372
64.9	1331
64.91	1289
64.92	1249
64.93	1265
64.94	1265
64.95	1266
64.96	1249
64.97	1235
64.98	1190
64.99	1167
65.0	1141
65.01	1125
65.02	1167
65.03	1185
65.04	1199
65.05	1152
65.06	1120
65.07	1115
65.08	1132
65.09	1128
65.1	1120
65.11	1112
65.12	1115
65.13	1107
65.14	1114
65.15	1132
65.16	1102
65.17	1119
65.18	1144
65.19	1061
65.2	1095
65.21	1121
65.22	1114
65.23	1110
65.24	1117
65.25	1104
65.26	1101
65.27	1114
65.28	1110
65.29	1101
65.3	1075
65.31	1085
65.32	1123
65.33	1164
65.34	1134
65.35	1100
65.36	1130
65.37	1153
65.38	1152
65.39	1111
65.4	1139
65.41	1179
65.42	1188
65.43	1143
65.44	1185
65.45	1258
65.46	1349
65.47	1387
65.48	1335
65.49	1363
65.5	1422
65.51	1440
65.52	1482
65.53	1506
65.54	1523
65.55	1590
65.56	1684
65.57	1713
65.58	1717
65.59	1770
65.6	1813
65.61	1750
65.62	1773
65.63	1873
65.64	1864
65.65	1821
65.66	1778
65.67	1701
65.68	1651
65.69	1669
65.7	1638
65.71	1584
65.72	1637
65.73	1672
65.74	1574
65.75	1580
65.76	1602
65.77	1594
65.78	1611
65.79	1554
65.8	1516
65.81	1521
65.82	1474
65.83	1478
65.84	1429
65.85	1397
65.86	1383
65.87	1400
65.88	1358
65.89	1320
65.9	1259
65.91	1237
65.92	1267
65.93	1240
65.94	1225
65.95	1207
65.96	1172
65.97	1191
65.98	1157
65.99	1143
66.0	1102
66.01	1127
66.02	1113
66.03	1096
66.04	1088
66.05	1049
66.06	1109
66.07	1058
66.08	1050
66.09	1063
66.1	1076
66.11	1073
66.12	1105
66.13	1067
66.14	1080
66.15	1025
66.16	1036
66.17	1047
66.18	1068
66.19	1073
66.2	1043
66.21	1013
66.22	1029
66.23	1021
66.24	1057
66.25	1056
66.26	1027
66.27	1066
66.28	1065
66.29	1062
66.3	1029
66.31	1029
66.32	1046
66.33	1017
66.34	1002
66.35	1028
66.36	1043
66.37	1076
66.38	1082
66.39	1054
66.4	1023
66.41	1009
66.42	1047
66.43	1072
66.44	1043
66.45	1023
66.46	1047
66.47	1093
66.48	1070
66.49	1064
66.5	1036
66.51	1065
66.52	1058
66.53	1062
66.54	1030
66.55	1021
66.56	1054
66.57	1026
66.58	996
66.59	1044
66.6	1055
66.61	1027
66.62	1006
66.63	1010
66.64	1022
66.65	1048
66.66	1010
66.67	1036
66.68	1068
66.69	1041
66.7	1021
66.71	1038
66.72	1037
66.73	1019
66.74	1025
66.75	1052
66.76	1033
66.77	1013
66.78	1039
66.79	1023
66.8	1014
66.81	1016
66.82	1032
66.83	1057
66.84	1036
66.85	1056
66.86	1066
66.87	1066
66.88	1031
66.89	1029
66.9	1056
66.91	1019
66.92	1008
66.93	1000
66.94	1037
66.95	1041
66.96	1055
66.97	1009
66.98	1074
66.99	1059
67.0	1043
67.01	1019
67.02	1043
67.03	1065
67.04	1052
67.05	1029
67.06	1004
67.07	1016
67.08	1039
67.09	1047
67.1	1082
67.11	1071
67.12	1062
67.13	1069
67.14	1050
67.15	1022
67.16	1060
67.17	1009
67.18	1007
67.19	1027
67.2	1037
67.21	1042
67.22	1039
67.23	1058
67.24	1027
67.25	1049
67.26	1055
67.27	1059
67.28	1072
67.29	1048
67.3	1029
67.31	1016
67.32	995
67.33	959
67.34	1029
67.35	1068
67.36	1076
67.37	1074
67.38	1057
67.39	1052
67.4	1078
67.41	1054
67.42	1088
67.43	1052
67.44	995
67.45	986
67.46	1049
67.47	1046
67.48	1027
67.49	1065
67.5	1096
67.51	1071
67.52	1084
67.53	1085
67.54	1058
67.55	1054
67.56	1050
67.57	1078
67.58	1090
67.59	1074
67.6	1077
67.61	1030
67.62	1037
67.63	1041
67.64	1037
67.65	1044
67.66	1005
67.67	1035
67.68	1073
67.69	1063
67.7	1058
67.71	1040
67.72	1049
67.73	1046
67.74	1051
67.75	1068
67.76	1048
67.77	1035
67.78	1044
67.79	1064
67.8	1053
67.81	1040
67.82	1096
67.83	1069
67.84	1058
67.85	1050
67.86	1032
67.87	1077
67.88	1056
67.89	1029
67.9	1040
67.91	1088
67.92	1060
67.93	1038
67.94	1071
67.95	1052
67.96	1053
67.97	1031
67.98	1016
67.99	1032
68.0	1057
68.01	1078
68.02	1063
68.03	1052
68.04	1038
68.05	1091
68.06	1097
68.07	1072
68.08	1065
68.09	1073
68.1	1063
68.11	1041
68.12	1071
68.13	1084
68.14	1084
68.15	1068
68.16	1040
68.17	1031
68.18	1071
68.19	1091
68.2	1104
68.21	1066
68.22	1034
68.23	1063
68.24	1089
68.25	1071
68.26	1040
68.27	1052
68.28	1052
68.29	1081
68.3	1099
68.31	1096
68.32	1104
68.33	1112
68.34	1102
68.35	1093
68.36	1108
68.37	1098
68.38	1134
68.39	1094
68.4	1067
68.41	1100
68.42	1095
68.43	1119
68.44	1161
68.45	1121
68.46	1067
68.47	1127
68.48	1139
68.49	1142
68.5	1170
68.51	1185
68.52	1141
68.53	1145
68.54	1145
68.55	1162
68.56	1172
68.57	1146
68.58	1166
68.59	1207
68.6	1182
68.61	1165
68.62	1144
68.63	1164
68.64	1192
68.65	1203
68.66	1196
68.67	1185
68.68	1214
68.69	1233
68.7	1208
68.71	1199
68.72	1221
68.73	1265
68.74	1286
68.75	1279
68.76	1303
68.77	1287
68.78	1261
68.79	1274
68.8	1338
68.81	1385
68.82	1382
68.83	1380
68.84	1398
68.85	1440
68.86	1452
68.87	1494
68.88	1472
68.89	1482
68.9	1493
68.91	1493
68.92	1482
68.93	1475
68.94	1459
68.95	1442
68.96	1451
68.97	1433
68.98	1407
68.99	1474
69.0	1454
69.01	1408
69.02	1431
69.03	1401
69.04	1410
69.05	1441
69.06	1426
69.07	1431
69.08	1392
69.09	1371
69.1	1350
69.11	1340
69.12	1354
69.13	1313
69.14	1297
69.15	1295
69.16	1315
69.17	1314
69.18	1293
69.19	1280
69.2	1224
69.21	1199
69.22	1229
69.23	1226
69.24	1255
69.25	1179
69.26	1194
69.27	1166
69.28	1155
69.29	1168
69.3	1120
69.31	1116
69.32	1156
69.33	1152
69.34	1101
69.35	1084
69.36	1109
69.37	1142
69.38	1148
69.39	1146
69.4	1108
69.41	1097
69.42	1116
69.43	1103
69.44	1109
69.45	1121
69.46	1108
69.47	1153
69.48	1135
69.49	1121
69.5	1127
69.51	1148
69.52	1152
69.53	1145
69.54	1108
69.55	1103
69.56	1093
69.57	1102
69.58	1086
69.59	1100
69.6	1127
69.61	1139
69.62	1132
69.63	1105
69.64	1115
69.65	1143
69.66	1139
69.67	1108
69.68	1146
69.69	1112
69.7	1127
69.71	1167
69.72	1197
69.73	1169
69.74	1178
69.75	1151
69.76	1162
69.77	1185
69.78	1147
69.79	1111
69.8	1103
69.81	1139
69.82	1142
69.83	1182
69.84	1138
69.85	1147
69.86	1229
69.87	1188
69.88	1202
69.89	1185
69.9	1206
69.91	1203
69.92	1183
69.93	1202
69.94	1230
69.95	1213
69.96	1268
69.97	1283
69.98	1267
69.99	1289
70.0	1295
70.01	1287
70.02	1329
70.03	1379
70.04	1395
70.05	1410
70.06	1496
70.07	1595
70.08	1641
70.09	1687
70.1	1830
70.11	2001
70.12	2208
70.13	2440
70.14	2739
70.15	2964
70.16	3187
70.17	3415
70.18	3540
70.19	3569
70.2	3504
70.21	3356
70.22	3089
70.23	2715
70.24	2444
70.25	2246
70.26	2113
70.27	1977
70.28	1860
70.29	1829
70.3	1820
70.31	1834
70.32	1879
70.33	1969
70.34	2100
70.35	2179
70.36	2256
70.37	2313
70.38	2377
70.39	2388
70.4	2321
70.41	2262
70.42	2137
70.43	2013
70.44	1832
70.45	1672
70.46	1607
70.47	1538
70.48	1455
70.49	1398
70.5	1383
70.51	1352
70.52	1271
70.53	1296
70.54	1241
70.55	1222
70.56	1237
70.57	1229
70.58	1204
70.59	1168
70.6	1171
70.61	1192
70.62	1177
70.63	1170
70.64	1188
70.65	1136
70.66	1126
70.67	1141
70.68	1181
70.69	1144
70.7	1129
70.71	1135
70.72	1132
70.73	1159
70.74	1106
70.75	1098
70.76	1104
70.77	1128
70.78	1113
70.79	1094
70.8	1106
70.81	1092
70.82	1103
70.83	1133
70.84	1089
70.85	1067
70.86	1082
70.87	1052
70.88	1061
70.89	1077
70.9	1069
70.91	1078
70.92	1036
70.93	1051
70.94	1054
70.95	1086
70.96	1083
70.97	1051
70.98	1075
70.99	1084
71.0	1082
71.01	1093
71.02	1056
71.03	1076
71.04	1077
71.05	1051
71.06	1034
71.07	1030
71.08	1051
71.09	1078
71.1	1066
71.11	1075
71.12	1049
71.13	1080
71.14	1096
71.15	1098
71.16	1060
71.17	1024
71.18	1036
71.19	1031
71.2	1019
71.21	1019
71.22	1065
71.23	1022
71.24	1012
71.25	1011
71.26	1023
71.27	1024
71.28	1024
71.29	1011
71.3	995
71.31	1041
71.32	1074
71.33	1032
71.34	1018
71.35	1027
71.36	999
71.37	1017
71.38	988
71.39	1014
71.4	1055
71.41	1020
71.42	1012
71.43	1024
71.44	1018
71.45	1004
71.46	1021
71.47	1028
71.48	1000
71.49	1021
71.5	1012
71.51	999
71.52	1021
71.53	1017
71.54	1009
71.55	995
71.56	988
71.57	997
71.58	1006
71.59	1037
71.6	1042
71.61	1031
71.62	991
71.63	997
71.64	992
71.65	1049
71.66	1076
71.67	1035
71.68	1029
71.69	1042
71.7	1036
71.71	1020
71.72	1016
71.73	979
71.74	998
71.75	1038
71.76	1031
71.77	1050
71.78	983
71.79	1002
71.8	1017
71.81	1011
71.82	1022
71.83	1017
71.84	1022
71.85	953
71.86	977
71.87	1007
71.88	1039
71.89	1046
71.9	1015
71.91	1021
71.92	1039
71.93	1027
71.94	1023
71.95	1031
71.96	1003
71.97	1049
71.98	1019
71.99	989
72.0	1052
72.01	1041
72.02	1000
72.03	997
72.04	981
72.05	962
72.06	993
72.07	978
72.08	978
72.09	996
72.1	1017
72.11	1027
72.12	1019
72.13	982
72.14	968
72.15	973
72.16	1009
72.17	1034
72.18	1017
72.19	1023
72.2	1018
72.21	1036
72.22	1035
72.23	1018
72.24	977
72.25	1011
72.26	1021
72.27	1020
72.28	1001
72.29	1019
72.3	1020
72.31	1001
72.32	1024
72.33	1021
72.34	1029
72.35	1022
72.36	1021
72.37	1022
72.38	990
72.39	981
72.4	1024
72.41	1007
72.42	1010
72.43	1035
72.44	1006
72.45	985
72.46	1027
72.47	1010
72.48	983
72.49	1010
72.5	988
72.51	993
72.52	1016
72.53	1027
72.54	1022
72.55	1016
72.56	994
72.57	1013
72.58	1043
72.59	1020
72.6	1038
72.61	1010
72.62	989
72.63	944
72.64	1000
72.65	985
72.66	991
72.67	999
72.68	974
72.69	1004
72.7	1025
72.71	994
72.72	1007
72.73	1015
72.74	1004
72.75	988
72.76	976
72.77	1013
72.78	1041
72.79	1030
72.8	1015
72.81	1041
72.82	1049
72.83	1050
72.84	1037
72.85	1069
72.86	1044
72.87	1058
72.88	1031
72.89	1011
72.9	1002
72.91	1003
72.92	979
72.93	973
72.94	1021
72.95	1057
72.96	1025
72.97	989
72.98	1019
72.99	1002
73.0	1000
73.01	1017
73.02	1018
73.03	1024
73.04	988
73.05	996
73.06	982
73.07	1002
73.08	983
73.09	979
73.1	1000
73.11	984
73.12	1008
73.13	1004
73.14	981
73.15	996
73.16	1014
73.17	1020
73.18	1048
73.19	1079
73.2	1071
73.21	1048
73.22	1009
73.23	983
73.24	973
73.25	1016
73.26	1038
73.27	1043
73.28	1047
73.29	1048
73.3	1005
73.31	1043
73.32	1021
73.33	1009
73.34	1033
73.35	1052
73.36	1062
73.37	1039
73.38	1040
73.39	1042
73.4	1049
73.41	1045
73.42	1063
73.43	1058
73.44	1032
73.45	1064
73.46	1063
73.47	1065
73.48	1057
73.49	1044
73.5	1063
73.51	1049
73.52	1089
73.53	1096
73.54	1063
73.55	1066
73.56	1115
73.57	1139
73.58	1147
73.59	1141
73.6	1112
73.61	1124
73.62	1151
73.63	1145
73.64	1142
73.65	1179
73.66	1210
73.67	1229
73.68	1272
73.69	1363
73.7	1396
73.71	1481
73.72	1561
73.73	1630
73.74	1755
73.75	1935
73.76	2122
73.77	2292
73.78	2486
73.79	2591
73.8	2643
73.81	2681
73.82	2625
73.83	2482
73.84	2251
73.85	2075
73.86	1953
73.87	1762
73.88	1587
73.89	1559
73.9	1537
73.91	1473
73.92	1450
73.93	1499
73.94	1528
73.95	1528
73.96	1555
73.97	1647
73.98	1697
73.99	1789
74.0	1909
74.01	1897
74.02	1900
74.03	1931
74.04	1873
74.05	1767
74.06	1649
74.07	1537
74.08	1416
74.09	1351
74.1	1350
74.11	1277
74.12	1243
74.13	1170
74.14	1151
74.15	1212
74.16	1130
74.17	1128
74.18	1170
74.19	1157
74.2	1152
74.21	1134
74.22	1073
74.23	1097
74.24	1113
74.25	1103
74.26	1104
74.27	1107
74.28	1078
74.29	1097
74.3	1160
74.31	1081
74.32	1096
74.33	1078
74.34	1065
74.35	1070
74.36	1088
74.37	1081
74.38	1093
74.39	1106
74.4	1074
74.41	1031
74.42	1045
74.43	1054
74.44	1049
74.45	1023
74.46	1027
74.47	1054
74.48	1077
74.49	1083
74.5	1058
74.51	1004
74.52	1005
74.53	1039
74.54	1031
74.55	1045
74.56	1024
74.57	1066
74.58	1094
74.59	1062
74.6	1104
74.61	1121
74.62	1092
74.63	1085
74.64	1080
74.65	1101
74.66	1115
74.67	1097
74.68	1064
74.69	1077
74.7	1107
74.71	1086
74.72	1114
74.73	1097
74.74	1072
74.75	1122
74.76	1100
74.77	1143
74.78	1103
74.79	1105
74.8	1137
74.81	1114
74.82	1097
74.83	1115
74.84	1134
74.85	1136
74.86	1160
74.87	1170
74.88	1172
74.89	1142
74.9	1164
74.91	1143
74.92	1127
74.93	1147
74.94	1143
74.95	1112
74.96	1149
74.97	1159
74.98	1174
74.99	1156
75.0	1128
75.01	1167
75.02	1148
75.03	1137
75.04	1142
75.05	1179
75.06	1143
75.07	1150
75.08	1139
75.09	1133
75.1	1140
75.11	1192
75.12	1187
75.13	1162
75.14	1192
75.15	1185
75.16	1190
75.17	1127
75.18	1128
75.19	1197
75.2	1159
75.21	1141
75.22	1180
75.23	1177
75.24	1174
75.25	1166
75.26	1169
75.27	1152
75.28	1152
75.29	1169
75.3	1133
75.31	1111
75.32	1104
75.33	1156
75.34	1189
75.35	1154
75.36	1148
75.37	1140
75.38	1162
75.39	1161
75.4	1156
75.41	1142
75.42	1138
75.43	1142
75.44	1139
75.45	1120
75.46	1099
75.47	1125
75.48	1153
75.49	1119
75.5	1108
75.51	1098
75.52	1100
75.53	1085
75.54	1080
75.55	1091
75.56	1117
75.57	1149
75.58	1111
75.59	1102
75.6	1097
75.61	1067
75.62	1076
75.63	1056
75.64	1025
75.65	1083
75.66	1105
75.67	1092
75.68	1074
75.69	1090
75.7	1117
75.71	1112
75.72	1058
75.73	1036
75.74	1072
75.75	1081
75.76	1079
75.77	1119
75.78	1113
75.79	1066
75.8	1099
75.81	1083
75.82	1064
75.83	1083
75.84	1068
75.85	1085
75.86	1110
75.87	1082
75.88	1101
75.89	1104
75.9	1090
75.91	1051
75.92	1088
75.93	1108
75.94	1058
75.95	1083
75.96	1082
75.97	1074
75.98	1097
75.99	1034
76.0	1063
76.01	1060
76.02	1049
76.03	1091
76.04	1085
76.05	1041
76.06	1067
76.07	1056
76.08	1073
76.09	1058
76.1	1080
76.11	1038
76.12	1062
76.13	1058
76.14	1072
76.15	1079
76.16	1064
76.17	1078
76.18	1102
76.19	1054
76.2	1043
76.21	1064
76.22	1045
76.23	1028
76.24	1045
76.25	1081
76.26	1072
76.27	1047
76.28	1047
76.29	1015
76.3	1001
76.31	1026
76.32	1055
76.33	1054
76.34	1036
76.35	1050
76.36	1037
76.37	1030
76.38	1047
76.39	1065
76.4	1040
76.41	1053
76.42	1050
76.43	1026
76.44	997
76.45	1029
76.46	1048
76.47	1020
76.48	1024
76.49	989
76.5	1025
76.51	1016
76.52	991
76.53	999
76.54	1011
76.55	997
76.56	976
76.57	1017
76.58	1015
76.59	970
76.6	993
76.61	1016
76.62	1029
76.63	1030
76.64	1005
76.65	1005
76.66	1052
76.67	1016
76.68	1042
76.69	1009
76.7	1000
76.71	981
76.72	983
76.73	1009
76.74	1000
76.75	998
76.76	1004
76.77	974
76.78	989
76.79	993
76.8	989
76.81	995
76.82	986
76.83	970
76.84	1024
76.85	1051
76.86	1002
76.87	1003
76.88	972
76.89	990
76.9	979
76.91	1030
76.92	1018
76.93	1005
76.94	975
76.95	989
76.96	995
76.97	998
76.98	1017
76.99	1017
77.0	988
77.01	1004
77.02	1034
77.03	1017
77.04	1032
77.05	991
77.06	981
77.07	988
77.08	968
77.09	975
77.1	1000
77.11	991
77.12	1021
77.13	964
77.14	947
77.15	987
77.16	1009
77.17	1026
77.18	995
77.19	996
77.2	1043
77.21	1037
77.22	975
77.23	954
77.24	989
77.25	989
77.26	960
77.27	978
77.28	1033
77.29	1014
77.3	979
77.31	1000
77.32	1021
77.33	978
77.34	1006
77.35	993
77.36	986
77.37	1002
77.38	998
77.39	991
77.4	997
77.41	989
77.42	1005
77.43	1045
77.44	1031
77.45	1047
77.46	1024
77.47	1007
77.48	1036
77.49	1037
77.5	1026
77.51	1030
77.52	994
77.53	1024
77.54	1021
77.55	1032
77.56	994
77.57	1003
77.58	1010
77.59	1028
77.6	1006
77.61	1029
77.62	1028
77.63	1028
77.64	1034
77.65	1028
77.66	1035
77.67	1063
77.68	1044
77.69	1028
77.7	1015
77.71	1044
77.72	1050
77.73	1077
77.74	1058
77.75	1058
77.76	1060
77.77	1090
77.78	1101
77.79	1108
77.8	1114
77.81	1088
77.82	1079
77.83	1050
77.84	1045
77.85	1095
77.86	1113
77.87	1087
77.88	1044
77.89	1017
77.9	1041
77.91	1059
77.92	1031
77.93	1036
77.94	1052
77.95	1039
77.96	1069
77.97	1065
77.98	1088
77.99	1071
78.0	1042
78.01	1009
78.02	1014
78.03	1031
78.04	1016
78.05	973
78.06	987
78.07	1056
78.08	1057
78.09	1021
78.1	1020
78.11	1013
78.12	1038
78.13	1017
78.14	1010
78.15	1010
78.16	1030
78.17	1027
78.18	1020
78.19	1009
78.2	1010
78.21	1000
78.22	1006
78.23	998
78.24	984
78.25	1006
78.26	1016
78.27	1038
78.28	1046
78.29	1009
78.3	1017
78.31	1017
78.32	1014
78.33	1013
78.34	1040
78.35	1053
78.36	1070
78.37	1021
78.38	1025
78.39	1005
78.4	1045
78.41	1041
78.42	1045
78.43	1027
78.44	1041
78.45	1057
78.46	1047
78.47	1049
78.48	1044
78.49	1054
78.5	1042
78.51	1012
78.52	996
78.53	996
78.54	1004
78.55	1027
78.56	983
78.57	1050
78.58	1032
78.59	1034
78.6	1050
78.61	1027
78.62	1018
78.63	1001
78.64	1004
78.65	1009
78.66	1001
78.67	1012
78.68	1049
78.69	1035
78.7	1029
78.71	1010
78.72	990
78.73	986
78.74	1001
78.75	1010
78.76	996
78.77	989
78.78	972
78.79	994
78.8	990
78.81	971
78.82	1001
78.83	1019
78.84	994
78.85	1022
78.86	1018
78.87	1002
78.88	974
78.89	968
78.9	982
78.91	1006
78.92	1016
78.93	1008
78.94	994
78.95	988
78.96	998
78.97	989
78.98	1002
78.99	1008
79.0	1015
79.01	1007
79.02	1020
79.03	1029
79.04	1030
79.05	1025
79.06	964
79.07	990
79.08	970
79.09	959
79.1	973
79.11	989
79.12	978
79.13	1025
79.14	1016
79.15	995
79.16	968
79.17	990
79.18	970
79.19	977
79.2	1017
79.21	955
79.22	962
79.23	1032
79.24	988
79.25	989
79.26	1009
79.27	975
79.28	950
79.29	955
79.3	979
79.31	967
79.32	951
79.33	978
79.34	975
79.35	977
79.36	1001
79.37	956
79.38	952
79.39	963
79.4	929
79.41	960
79.42	977
79.43	924
79.44	966
79.45	977
79.46	963
79.47	940
79.48	914
79.49	947
79.5	938
79.51	960
79.52	957
79.53	948
79.54	957
79.55	935
79.56	945
79.57	944
79.58	957
79.59	981
79.6	1000
79.61	1007
79.62	955
79.63	959
79.64	966
79.65	961
79.66	963
79.67	989
79.68	946
79.69	956
79.7	977
79.71	974
79.72	950
79.73	937
79.74	951
79.75	979
79.76	965
79.77	971
79.78	962
79.79	957
79.8	948
79.81	957
79.82	944
79.83	940
79.84	961
79.85	962
79.86	944
79.87	994
79.88	949
79.89	947
79.9	991
79.91	985
79.92	953
79.93	976
79.94	967
79.95	945
79.96	932
79.97	915
79.98	909
79.99	916
80.0	954
80.01	967
80.02	959
80.03	937
80.04	964
80.05	977
80.06	974
80.07	947
80.08	933
80.09	943
80.1	958
80.11	946
80.12	925
80.13	965
80.14	993
80.15	956
80.16	967
80.17	946
80.18	945
80.19	950
80.2	978
80.21	982
80.22	969
80.23	971
80.24	999
80.25	938
80.26	951
80.27	991
80.28	998
80.29	1027
80.3	1003
80.31	980
80.32	957
80.33	986
80.34	959
80.35	956
80.36	990
80.37	1007
80.38	1004
80.39	988
80.4	994
80.41	973
80.42	933
80.43	926
80.44	965
80.45	935
80.46	903
80.47	966
80.48	950
80.49	978
80.5	982
80.51	943
80.52	998
80.53	994
80.54	956
80.55	946
80.56	936
80.57	957
80.58	977
80.59	967
80.6	978
80.61	965
80.62	963
80.63	969
80.64	967
80.65	965
80.66	977
80.67	969
80.68	979
80.69	983
80.7	952
80.71	997
80.72	985
80.73	927
80.74	944
80.75	992
80.76	1010
80.77	987
80.78	995
80.79	991
80.8	965
80.81	1000
80.82	1023
80.83	1019
80.84	995
80.85	965
80.86	994
80.87	994
80.88	1019
80.89	1003
80.9	996
80.91	965
80.92	960
80.93	986
80.94	968
80.95	968
80.96	1005
80.97	1031
80.98	1080
80.99	1070
81.0	1067
81.01	1053
81.02	998
81.03	1025
81.04	1036
81.05	1054
81.06	1053
81.07	1025
81.08	1071
81.09	1081
81.1	1050
81.11	1058
81.12	1095
81.13	1107
81.14	1078
81.15	1096
81.16	1089
81.17	1063
81.18	1044
81.19	1070
81.2	1025
81.21	997
81.22	1012
81.23	1052
81.24	1062
81.25	1055
81.26	1059
81.27	1077
81.28	1068
81.29	1079
81.3	1084
81.31	1080
81.32	1050
81.33	1054
81.34	1073
81.35	1069
81.36	1064
81.37	1057
81.38	1091
81.39	1084
81.4	1052
81.41	1036
81.42	1065
81.43	1062
81.44	1046
81.45	1046
81.46	1028
81.47	1016
81.48	1017
81.49	1007
81.5	1013
81.51	1011
81.52	1072
81.53	1045
81.54	1055
81.55	1041
81.56	1028
81.57	1034
81.58	1046
81.59	1044
81.6	1036
81.61	1027
81.62	1056
81.63	1054
81.64	1051
81.65	1010
81.66	1001
81.67	981
81.68	1015
81.69	1005
81.7	1014
81.71	1015
81.72	984
81.73	1012
81.74	1010
81.75	1014
81.76	1039
81.77	1017
81.78	979
81.79	995
81.8	1022
81.81	1034
81.82	1017
81.83	999
81.84	993
81.85	1014
81.86	1042
81.87	1039
81.88	1017
81.89	1008
81.9	985
81.91	1005
81.92	1036
81.93	1038
81.94	1020
81.95	1005
81.96	1007
81.97	1015
81.98	1013
81.99	1019
82.0	1051
82.01	1033
82.02	1016
82.03	1000
82.04	1009
82.05	1029
82.06	1034
82.07	1006
82.08	1004
82.09	1039
82.1	1011
82.11	1017
82.12	997
82.13	1051
82.14	1076
82.15	1097
82.16	1073
82.17	1040
82.18	1038
82.19	1062
82.2	1076
82.21	1026
82.22	1053
82.23	1056
82.24	1071
82.25	1074
82.26	1041
82.27	1006
82.28	1010
82.29	1031
82.3	1031
82.31	1038
82.32	1040
82.33	1068
82.34	1106
82.35	1114
82.36	1125
82.37	1062
82.38	1055
82.39	1106
82.4	1071
82.41	1048
82.42	1047
82.43	1045
82.44	1043
82.45	1110
82.46	1063
82.47	1064
82.48	1096
82.49	1120
82.5	1120
82.51	1090
82.52	1114
82.53	1109
82.54	1090
82.55	1112
82.56	1100
82.57	1086
82.58	1100
82.59	1126
82.6	1091
82.61	1108
82.62	1136
82.63	1105
82.64	1128
82.65	1137
82.66	1130
82.67	1145
82.68	1137
82.69	1139
82.7	1120
82.71	1131
82.72	1144
82.73	1174
82.74	1182
82.75	1205
82.76	1199
82.77	1187
82.78	1220
82.79	1221
82.8	1240
82.81	1282
82.82	1238
82.83	1235
82.84	1281
82.85	1294
82.86	1301
82.87	1290
82.88	1295
82.89	1311
82.9	1299
82.91	1303
82.92	1296
82.93	1301
82.94	1311
82.95	1298
82.96	1299
82.97	1338
82.98	1323
82.99	1273
83.0	1277
83.01	1278
83.02	1227
83.03	1205
83.04	1224
83.05	1265
83.06	1257
83.07	1251
83.08	1241
83.09	1262
83.1	1260
83.11	1253
83.12	1231
83.13	1223
83.14	1230
83.15	1238
83.16	1213
83.17	1222
83.18	1212
83.19	1216
83.2	1169
83.21	1139
83.22	1144
83.23	1158
83.24	1185
83.25	1169
83.26	1179
83.27	1131
83.28	1106
83.29	1119
83.3	1126
83.31	1078
83.32	1056
83.33	1085
83.34	1119
83.35	1073
83.36	1072
83.37	1061
83.38	1054
83.39	1068
83.4	1047
83.41	1027
83.42	1068
83.43	1066
83.44	1017
83.45	1038
83.46	1077
83.47	1071
83.48	1038
83.49	1013
83.5	1005
83.51	1022
83.52	1007
83.53	1007
83.54	991
83.55	988
83.56	994
83.57	1024
83.58	1035
83.59	1006
83.6	989
83.61	992
83.62	1006
83.63	999
83.64	987
83.65	993
83.66	981
83.67	952
83.68	967
83.69	1029
83.7	1040
83.71	1016
83.72	998
83.73	1016
83.74	1025
83.75	1002
83.76	988
83.77	1014
83.78	1014
83.79	963
83.8	971
83.81	992
83.82	985
83.83	967
83.84	979
83.85	1015
83.86	1024
83.87	1022
83.88	1030
83.89	984
83.9	962
83.91	962
83.92	972
83.93	997
83.94	1029
83.95	979
83.96	960
83.97	966
83.98	998
83.99	978
84.0	995
84.01	971
84.02	948
84.03	948
84.04	958
84.05	986
84.06	977
84.07	972
84.08	1019
84.09	991
84.1	975
84.11	950
84.12	973
84.13	965
84.14	957
84.15	976
84.16	945
84.17	952
84.18	957
84.19	930
84.2	960
84.21	985
84.22	992
84.23	976
84.24	960
84.25	972
84.26	985
84.27	973
84.28	999
84.29	986
84.3	971
84.31	1000
84.32	960
84.33	953
84.34	975
84.35	1023
84.36	1023
84.37	1005
84.38	995
84.39	1007
84.4	1026
84.41	1027
84.42	1024
84.43	994
84.44	972
84.45	1037
84.46	1055
84.47	1041
84.48	1021
84.49	1051
84.5	1126
84.51	1078
84.52	1087
84.53	1062
84.54	1049
84.55	1044
84.56	1044
84.57	1048
84.58	1055
84.59	1067
84.6	1109
84.61	1114
84.62	1095
84.63	1062
84.64	1075
84.65	1041
84.66	1025
84.67	1084
84.68	1069
84.69	1024
84.7	1025
84.71	1032
84.72	1040
84.73	1023
84.74	1080
84.75	1066
84.76	1037
84.77	1041
84.78	1020
84.79	992
84.8	1011
84.81	1038
84.82	1020
84.83	1034
84.84	1048
84.85	1038
84.86	1024
84.87	1023
84.88	1000
84.89	1013
84.9	1015
84.91	1022
84.92	1001
84.93	1018
84.94	1000
84.95	976
84.96	995
84.97	999
84.98	1001
84.99	977
85.0	975
85.01	983
85.02	1015
85.03	1032
85.04	1013
85.05	989
85.06	987
85.07	998
85.08	990
85.09	970
85.1	928
85.11	926
85.12	978
85.13	996
85.14	1004
85.15	975
85.16	994
85.17	995
85.18	1000
85.19	988
85.2	955
85.21	959
85.22	947
85.23	936
85.24	929
85.25	938
85.26	968
85.27	985
85.28	977
85.29	990
85.3	958
85.31	963
85.32	985
85.33	943
85.34	922
85.35	974
85.36	995
85.37	988
85.38	972
85.39	970
85.4	1008
85.41	977
85.42	959
85.43	952
85.44	957
85.45	955
85.46	943
85.47	918
85.48	912
85.49	941
85.5	970
85.51	935
85.52	889
85.53	923
85.54	931
85.55	913
85.56	947
85.57	969
85.58	974
85.59	989
85.6	998
85.61	986
85.62	997
85.63	1003
85.64	994
85.65	961
85.66	955
85.67	956
85.68	954
85.69	945
85.7	961
85.71	979
85.72	984
85.73	975
85.74	976
85.75	990
85.76	980
85.77	985
85.78	985
85.79	935
85.8	928
85.81	952
85.82	956
85.83	954
85.84	940
85.85	971
85.86	977
85.87	978
85.88	974
85.89	955
85.9	967
85.91	948
85.92	970
85.93	975
85.94	966
85.95	968
85.96	974
85.97	982
85.98	974
85.99	960
86.0	968
86.01	976
86.02	1011
86.03	1001
86.04	970
86.05	982
86.06	982
86.07	958
86.08	946
86.09	977
86.1	991
86.11	961
86.12	945
86.13	945
86.14	967
86.15	948
86.16	961
86.17	996
86.18	949
86.19	934
86.2	949
86.21	942
86.22	973
86.23	979
86.24	998
86.25	994
86.26	960
86.27	958
86.28	958
86.29	935
86.3	958
86.31	962
86.32	958
86.33	971
86.34	994
86.35	979
86.36	941
86.37	983
86.38	963
86.39	983
86.4	952
86.41	938
86.42	942
86.43	941
86.44	944
86.45	926
86.46	963
86.47	997
86.48	987
86.49	974
86.5	982
86.51	971
86.52	976
86.53	976
86.54	952
86.55	928
86.56	941
86.57	941
86.58	931
86.59	946
86.6	956
86.61	933
86.62	947
86.63	943
86.64	927
86.65	937
86.66	982
86.67	979
86.68	955
86.69	968
86.7	958
86.71	938
86.72	926
86.73	939
86.74	946
86.75	936
86.76	945
86.77	962
86.78	931
86.79	915
86.8	941
86.81	938
86.82	933
86.83	927
86.84	938
86.85	951
86.86	965
86.87	991
86.88	983
86.89	949
86.9	957
86.91	974
86.92	971
86.93	936
86.94	946
86.95	958
86.96	967
86.97	946
86.98	918
86.99	920
87.0	941
87.01	957
87.02	967
87.03	965
87.04	944
87.05	939
87.06	926
87.07	953
87.08	964
87.09	981
87.1	964
87.11	938
87.12	954
87.13	954
87.14	953
87.15	977
87.16	984
87.17	971
87.18	946
87.19	946
87.2	933
87.21	918
87.22	945
87.23	985
87.24	971
87.25	970
87.26	976
87.27	981
87.28	948
87.29	963
87.3	996
87.31	985
87.32	943
87.33	934
87.34	957
87.35	963
87.36	958
87.37	968
87.38	985
87.39	994
87.4	995
87.41	987
87.42	980
87.43	1012
87.44	991
87.45	969
87.46	981
87.47	971
87.48	974
87.49	995
87.5	996
87.51	976
87.52	995
87.53	991
87.54	957
87.55	984
87.56	999
87.57	1008
87.58	1013
87.59	998
87.6	1010
87.61	1036
87.62	1043
87.63	1016
87.64	1011
87.65	1053
87.66	1118
87.67	1088
87.68	1085
87.69	1134
87.7	1181
87.71	1258
87.72	1301
87.73	1353
87.74	1436
87.75	1505
87.76	1564
87.77	1644
87.78	1655
87.79	1591
87.8	1519
87.81	1460
87.82	1434
87.83	1367
87.84	1311
87.85	1271
87.86	1260
87.87	1194
87.88	1156
87.89	1142
87.9	1109
87.91	1100
87.92	1116
87.93	1093
87.94	1072
87.95	1069
87.96	1095
87.97	1129
87.98	1143
87.99	1157
88.0	1187
88.01	1204
88.02	1221
88.03	1263
88.04	1276
88.05	1304
88.06	1340
88.07	1272
88.08	1217
88.09	1203
88.1	1165
88.11	1144
88.12	1102
88.13	1070
88.14	1075
88.15	1045
88.16	1056
88.17	1054
88.18	1036
88.19	1021
88.2	1002
88.21	1001
88.22	984
88.23	976
88.24	1008
88.25	1018
88.26	983
88.27	983
88.28	983
88.29	982
88.3	988
88.31	986
88.32	960
88.33	969
88.34	957
88.35	928
88.36	922
88.37	958
88.38	976
88.39	960
88.4	960
88.41	940
88.42	924
88.43	969
88.44	999
88.45	981
88.46	974
88.47	974
88.48	954
88.49	965
88.5	982
88.51	967
88.52	936
88.53	922
88.54	941
88.55	944
88.56	945
88.57	961
88.58	922
88.59	900
88.6	941
88.61	959
88.62	959
88.63	978
88.64	981
88.65	969
88.66	956
88.67	951
88.68	952
88.69	944
88.7	940
88.71	938
88.72	916
88.73	925
88.74	935
88.75	923
88.76	929
88.77	950
88.78	942
88.79	954
88.8	968
88.81	941
88.82	932
88.83	952
88.84	942
88.85	935
88.86	951
88.87	960
88.88	948
88.89	942
88.9	937
88.91	931
88.92	969
88.93	1018
88.94	980
88.95	934
88.96	952
88.97	957
88.98	939
88.99	933
89.0	950
89.01	958
89.02	972
89.03	983
89.04	969
89.05	962
89.06	961
89.07	950
89.08	933
89.09	933
89.1	933
89.11	952
89.12	956
89.13	949
89.14	957
89.15	944
89.16	913
89.17	914
89.18	938
89.19	969
89.2	952
89.21	975
89.22	965
89.23	936
89.24	973
89.25	998
89.26	956
89.27	945
89.28	961
89.29	952
89.3	962
89.31	992
89.32	979
89.33	946
89.34	955
89.35	964
89.36	967
89.37	955
89.38	979
89.39	960
89.4	952
89.41	955
89.42	935
89.43	950
89.44	925
89.45	903
89.46	938
89.47	951
89.48	945
89.49	936
89.5	959
89.51	971
89.52	949
89.53	931
89.54	960
89.55	973
89.56	969
89.57	968
89.58	964
89.59	942
89.6	935
89.61	954
89.62	945
89.63	925
89.64	929
89.65	952
89.66	947
89.67	936
89.68	960
89.69	983
89.7	980
89.71	970
89.72	964
89.73	953
89.74	957
89.75	957
89.76	958
89.77	944
89.78	945
89.79	952
89.8	960
89.81	969
89.82	958
89.83	969
89.84	953
89.85	935
89.86	953
89.87	947
89.88	931
89.89	927
89.9	941
89.91	971
89.92	986
89.93	981
89.94	973
89.95	958
89.96	962
89.97	956
89.98	938
89.99	929
90.0	931
90.01	943
90.02	962
90.03	966
90.04	945
90.05	931
90.06	920
90.07	922
90.08	927
90.09	940
90.1	954
90.11	947
90.12	930
90.13	916
90.14	912
90.15	917
90.16	926
90.17	947
90.18	953
90.19	947
90.2	920
90.21	915
90.22	951
90.23	951
90.24	914
90.25	927
90.26	957
90.27	939
90.28	921
90.29	933
90.3	954
90.31	968
90.32	973
90.33	956
90.34	937
90.35	936
90.36	925
90.37	924
90.38	947
90.39	949
90.4	954
90.41	955
90.42	957
90.43	945
90.44	969
90.45	973
90.46	940
90.47	946
90.48	960
90.49	950
90.5	938
90.51	955
90.52	960
90.53	920
90.54	902
90.55	920
90.56	935
90.57	941
90.58	936
90.59	937
90.6	951
90.61	968
90.62	963
90.63	946
90.64	961
90.65	956
90.66	927
90.67	917
90.68	919
90.69	929
90.7	931
90.71	934
90.72	945
90.73	940
90.74	933
90.75	937
90.76	930
90.77	911
90.78	908
90.79	955
90.8	991
90.81	985
90.82	964
90.83	962
90.84	956
90.85	938
90.86	928
90.87	924
90.88	926
90.89	940
90.9	964
90.91	968
90.92	949
90.93	931
90.94	928
90.95	933
90.96	928
90.97	916
90.98	907
90.99	909
91.0	913
91.01	916
91.02	923
91.03	935
91.04	959
91.05	967
91.06	941
91.07	942
91.08	954
91.09	938
91.1	938
91.11	941
91.12	943
91.13	951
91.14	940
91.15	927
91.16	928
91.17	932
91.18	939
91.19	945
91.2	939
91.21	928
91.22	925
91.23	932
91.24	922
91.25	945
91.26	964
91.27	920
91.28	912
91.29	919
91.3	929
91.31	958
91.32	955
91.33	959
91.34	975
91.35	978
91.36	976
91.37	946
91.38	906
91.39	922
91.4	962
91.41	972
91.42	947
91.43	933
91.44	945
91.45	943
91.46	953
91.47	963
91.48	935
91.49	923
91.5	931
91.51	937
91.52	941
91.53	971
91.54	989
91.55	960
91.56	949
91.57	934
91.58	935
91.59	944
91.6	919
91.61	911
91.62	912
91.63	907
91.64	929
91.65	942
91.66	937
91.67	931
91.68	949
91.69	968
91.7	946
91.71	936
91.72	937
91.73	952
91.74	956
91.75	922
91.76	915
91.77	921
91.78	935
91.79	961
91.8	971
91.81	962
91.82	948
91.83	935
91.84	946
91.85	951
91.86	939
91.87	945
91.88	960
91.89	971
91.9	960
91.91	940
91.92	951
91.93	955
91.94	951
91.95	973
91.96	961
91.97	935
91.98	964
91.99	977
92.0	956
92.01	928
92.02	904
92.03	920
92.04	933
92.05	925
92.06	926
92.07	932
92.08	950
92.09	964
92.1	956
92.11	928
92.12	930
92.13	941
92.14	935
92.15	940
92.16	953
92.17	957
92.18	950
92.19	952
92.2	948
92.21	930
92.22	919
92.23	914
92.24	925
92.25	946
92.26	955
92.27	944
92.28	933
92.29	935
92.3	923
92.31	919
92.32	945
92.33	946
92.34	946
92.35	945
92.36	924
92.37	939
92.38	960
92.39	980
92.4	983
92.41	957
92.42	968
92.43	995
92.44	991
92.45	949
92.46	908
92.47	945
92.48	982
92.49	969
92.5	935
92.51	921
92.52	940
92.53	953
92.54	961
92.55	982
92.56	978
92.57	952
92.58	975
92.59	992
92.6	959
92.61	927
92.62	927
92.63	955
92.64	987
92.65	1002
92.66	993
92.67	972
92.68	958
92.69	957
92.7	971
92.71	1004
92.72	986
92.73	965
92.74	975
92.75	962
92.76	953
92.77	953
92.78	968
92.79	981
92.8	982
92.81	983
92.82	975
92.83	963
92.84	950
92.85	935
92.86	932
92.87	933
92.88	957
92.89	968
92.9	977
92.91	982
92.92	975
92.93	979
92.94	962
92.95	953
92.96	960
92.97	981
92.98	995
92.99	945
93.0	961
93.01	1013
93.02	1000
93.03	969
93.04	955
93.05	955
93.06	985
93.07	1003
93.08	997
93.09	996
93.1	988
93.11	974
93.12	960
93.13	963
93.14	975
93.15	984
93.16	993
93.17	979
93.18	956
93.19	960
93.2	964
93.21	984
93.22	1014
93.23	997
93.24	985
93.25	969
93.26	980
93.27	985
93.28	953
93.29	962
93.3	995
93.31	1006
93.32	1014
93.33	1016
93.34	1000
93.35	983
93.36	994
93.37	1014
93.38	984
93.39	961
93.4	960
93.41	944
93.42	967
93.43	999
93.44	989
93.45	1010
93.46	1016
93.47	1000
93.48	1008
93.49	996
93.5	1007
93.51	1024
93.52	1027
93.53	1023
93.54	1002
93.55	1002
93.56	1013
93.57	1022
93.58	1038
93.59	1030
93.6	996
93.61	995
93.62	1019
93.63	1039
93.64	1038
93.65	1039
93.66	1057
93.67	1068
93.68	1023
93.69	988
93.7	1024
93.71	1037
93.72	1013
93.73	1016
93.74	1038
93.75	1031
93.76	1011
93.77	1002
93.78	1024
93.79	1038
93.8	1050
93.81	1047
93.82	1026
93.83	1018
93.84	1035
93.85	1033
93.86	1040
93.87	1048
93.88	1070
93.89	1075
93.9	1052
93.91	1026
93.92	1046
93.93	1054
93.94	1039
93.95	1078
93.96	1094
93.97	1054
93.98	1054
93.99	1056
94.0	1062
94.01	1069
94.02	1068
94.03	1060
94.04	1047
94.05	1042
94.06	1027
94.07	1036
94.08	1051
94.09	1047
94.1	1046
94.11	1073
94.12	1081
94.13	1055
94.14	1043
94.15	1050
94.16	1054
94.17	1048
94.18	1046
94.19	1037
94.2	1064
94.21	1079
94.22	1042
94.23	1048
94.24	1078
94.25	1057
94.26	1023
94.27	1047
94.28	1053
94.29	1040
94.3	1025
94.31	995
94.32	1009
94.33	1022
94.34	1042
94.35	1057
94.36	1030
94.37	1007
94.38	1027
94.39	1053
94.4	1036
94.41	1000
94.42	1007
94.43	1042
94.44	1044
94.45	1048
94.46	1036
94.47	1031
94.48	1023
94.49	1017
94.5	1032
94.51	1053
94.52	1027
94.53	1030
94.54	1008
94.55	968
94.56	992
94.57	1020
94.58	981
94.59	965
94.6	1006
94.61	1026
94.62	1035
94.63	1021
94.64	994
94.65	988
94.66	1015
94.67	1000
94.68	993
94.69	1013
94.7	1005
94.71	995
94.72	982
94.73	1009
94.74	1026
94.75	1021
94.76	987
94.77	996
94.78	1016
94.79	1022
94.8	1011
94.81	996
94.82	993
94.83	1013
94.84	1025
94.85	1018
94.86	1000
94.87	993
94.88	993
94.89	998
94.9	987
94.91	1001
94.92	1035
94.93	1037
94.94	992
94.95	989
94.96	987
94.97	1012
94.98	1031
94.99	1022
95.0	1003
95.01	996
95.02	1006
95.03	1038
95.04	1035
95.05	1000
95.06	983
95.07	993
95.08	1010
95.09	998
95.1	992
95.11	998
95.12	984
95.13	1000
95.14	976
95.15	967
95.16	1006
95.17	980
95.18	969
95.19	996
95.2	989
95.21	989
95.22	988
95.23	992
95.24	995
95.25	988
95.26	968
95.27	955
95.28	973
95.29	1007
95.3	1028
95.31	1011
95.32	1010
95.33	1005
95.34	1001
95.35	981
95.36	967
95.37	981
95.38	990
95.39	958
95.4	956
95.41	975
95.42	958
95.43	967
95.44	955
95.45	969
95.46	971
95.47	960
95.48	967
95.49	994
95.5	984
95.51	982
95.52	1017
95.53	1010
95.54	999
95.55	1015
95.56	1008
95.57	999
95.58	990
95.59	987
95.6	994
95.61	989
95.62	989
95.63	1006
95.64	1007
95.65	993
95.66	986
95.67	980
95.68	980
95.69	970
95.7	995
95.71	1012
95.72	985
95.73	1010
95.74	1007
95.75	1017
95.76	978
95.77	977
95.78	978
95.79	982
95.8	952
95.81	938
95.82	935
95.83	984
95.84	1004
95.85	992
95.86	967
95.87	967
95.88	955
95.89	938
95.9	948
95.91	963
95.92	947
95.93	941
95.94	967
95.95	983
95.96	998
95.97	1019
95.98	970
95.99	974
96.0	1005
96.01	998
96.02	1003
96.03	995
96.04	988
96.05	970
96.06	961
96.07	946
96.08	944
96.09	952
96.1	939
96.11	959
96.12	977
96.13	960
96.14	972
96.15	974
96.16	965
96.17	974
96.18	1000
96.19	984
96.2	944
96.21	950
96.22	950
96.23	941
96.24	940
96.25	943
96.26	965
96.27	984
96.28	946
96.29	955
96.3	971
96.31	951
96.32	965
96.33	980
96.34	963
96.35	1007
96.36	995
96.37	947
96.38	935
96.39	965
96.4	977
96.41	980
96.42	973
96.43	967
96.44	955
96.45	964
96.46	962
96.47	982
96.48	982
96.49	962
96.5	951
96.51	945
96.52	970
96.53	977
96.54	979
96.55	954
96.56	971
96.57	984
96.58	982
96.59	952
96.6	927
96.61	937
96.62	993
96.63	976
96.64	981
96.65	1006
96.66	978
96.67	953
96.68	961
96.69	967
96.7	971
96.71	958
96.72	948
96.73	963
96.74	978
96.75	940
96.76	954
96.77	992
96.78	985
96.79	971
96.8	982
96.81	981
96.82	987
96.83	982
96.84	990
96.85	985
96.86	942
96.87	967
96.88	965
96.89	943
96.9	928
96.91	920
96.92	939
96.93	940
96.94	945
96.95	978
96.96	966
96.97	947
96.98	964
96.99	994
97.0	943
97.01	927
97.02	957
97.03	931
97.04	927
97.05	985
97.06	978
97.07	976
97.08	963
97.09	938
97.1	959
97.11	953
97.12	977
97.13	1004
97.14	993
97.15	969
97.16	956
97.17	958
97.18	949
97.19	960
97.2	986
97.21	1014
97.22	967
97.23	952
97.24	963
97.25	920
97.26	940
97.27	968
97.28	967
97.29	961
97.3	962
97.31	968
97.32	985
97.33	966
97.34	960
97.35	967
97.36	981
97.37	999
97.38	996
97.39	1015
97.4	1004
97.41	985
97.42	961
97.43	982
97.44	988
97.45	973
97.46	966
97.47	971
97.48	960
97.49	948
97.5	961
97.51	938
97.52	971
97.53	979
97.54	966
97.55	959
97.56	977
97.57	1021
97.58	1041
97.59	990
97.6	953
97.61	950
97.62	931
97.63	957
97.64	1014
97.65	972
97.66	931
97.67	989
97.68	999
97.69	1000
97.7	1005
97.71	1022
97.72	1015
97.73	1003
97.74	985
97.75	991
97.76	998
97.77	1009
97.78	1014
97.79	1009
97.8	1034
97.81	1029
97.82	997
97.83	999
97.84	1018
97.85	1055
97.86	1025
97.87	989
97.88	1008
97.89	997
97.9	1025
97.91	995
97.92	1041
97.93	1071
97.94	1056
97.95	1084
97.96	1055
97.97	1045
97.98	1108
97.99	1113
98.0	1115
98.01	1181
98.02	1238
98.03	1275
98.04	1333
98.05	1344
98.06	1370
98.07	1473
98.08	1506
98.09	1547
98.1	1646
98.11	1723
98.12	1796
98.13	1750
98.14	1722
98.15	1719
98.16	1624
98.17	1578
98.18	1520
98.19	1473
98.2	1381
98.21	1301
98.22	1255
98.23	1229
98.24	1173
98.25	1214
98.26	1185
98.27	1148
98.28	1102
98.29	1140
98.3	1131
98.31	1128
98.32	1143
98.33	1154
98.34	1149
98.35	1152
98.36	1177
98.37	1173
98.38	1207
98.39	1193
98.4	1215
98.41	1288
98.42	1317
98.43	1363
98.44	1391
98.45	1435
98.46	1395
98.47	1374
98.48	1346
98.49	1361
98.5	1327
98.51	1230
98.52	1214
98.53	1186
98.54	1167
98.55	1136
98.56	1089
98.57	1067
98.58	1095
98.59	1109
98.6	1076
98.61	1067
98.62	1101
98.63	1080
98.64	1068
98.65	1102
98.66	1023
98.67	978
98.68	1028
98.69	1052
98.7	1073
98.71	1045
98.72	1052
98.73	1078
98.74	1093
98.75	1065
98.76	1026
98.77	1046
98.78	987
98.79	1032
98.8	1086
98.81	1054
98.82	1011
98.83	1040
98.84	1064
98.85	1069
98.86	1025
98.87	1021
98.88	1055
98.89	1077
98.9	1027
98.91	1041
98.92	1070
98.93	1039
98.94	1048
98.95	1081
98.96	1039
98.97	1035
98.98	1065
98.99	1058
99.0	1055
99.01	1081
99.02	1055
99.03	1073
99.04	1075
99.05	1068
99.06	1098
99.07	1096
99.08	1059
99.09	1068
99.1	1094
99.11	1075
99.12	1068
99.13	1101
99.14	1107
99.15	1070
99.16	1047
99.17	1040
99.18	1041
99.19	1075
99.2	1066
99.21	1085
99.22	1100
99.23	1095
99.24	1107
99.25	1042
99.26	1038
99.27	1090
99.28	1096
99.29	1097
99.3	1073
99.31	1049
99.32	1040
99.33	1076
99.34	1084
99.35	1095
99.36	1072
99.37	1088
99.38	1074
99.39	1050
99.4	1032
99.41	1046
99.42	1063
99.43	1032
99.44	1004
99.45	1008
99.46	1043
99.47	1047
99.48	1046
99.49	1036
99.5	1020
99.51	1032
99.52	1068
99.53	1035
99.54	1019
99.55	1027
99.56	1052
99.57	1034
99.58	1037
99.59	1008
99.6	1035
99.61	1016
99.62	980
99.63	979
99.64	992
99.65	1023
99.66	1000
99.67	989
99.68	980
99.69	969
99.7	1007
99.71	1006
99.72	1003
99.73	1011
99.74	1001
99.75	968
99.76	985
99.77	930
99.78	993
99.79	1035
99.8	1024
99.81	1014
99.82	963
99.83	971
99.84	989
99.85	1025
99.86	1009
99.87	979
99.88	987
99.89	1000
99.9	1021
99.91	981
99.92	966
99.93	963
99.94	951
99.95	981
99.96	1033
99.97	1021
99.98	968
99.99	946
100.0	987
