10.0	2021
10.01	2002
10.02	2016
10.03	2005
10.04	2003
10.05	2057
10.06	2007
10.07	1952
10.08	1923
10.09	2011
10.1	2061
10.11	2041
10.12	2049
10.13	2008
10.14	2035
10.15	2030
10.16	1996
10.17	2011
10.18	2012
10.19	2040
10.2	2041
10.21	2039
10.22	2001
10.23	1998
10.24	2072
10.25	2020
10.26	2034
10.27	2049
10.28	2063
10.29	2052
10.3	2045
10.31	2022
10.32	1976
10.33	1994
10.34	2018
10.35	2058
10.36	2092
10.37	2020
10.38	2006
10.39	2017
10.4	2015
10.41	2061
10.42	2071
10.43	2054
10.44	2057
10.45	2078
10.46	2020
10.47	2027
10.48	2011
10.49	1990
10.5	2052
10.51	2047
10.52	2093
10.53	2074
10.54	2143
10.55	2089
10.56	2075
10.57	2095
10.58	2107
10.59	2040
10.6	2059
10.61	2065
10.62	2035
10.63	2063
10.64	2116
10.65	2107
10.66	2092
10.67	2109
10.68	2129
10.69	2082
10.7	2124
10.71	2073
10.72	2020
10.73	2003
10.74	2070
10.75	2086
10.76	2090
10.77	2098
10.78	2147
10.79	2154
10.8	2168
10.81	2162
10.82	2127
10.83	2097
10.84	2075
10.85	2110
10.86	2109
10.87	2105
10.88	2098
10.89	2143
10.9	2124
10.91	2070
10.92	2122
10.93	2090
10.94	2106
10.95	2067
10.96	2140
10.97	2146
10.98	2129
10.99	2159
11.0	2121
11.01	2161
11.02	2159
11.03	2163
11.04	2140
11.05	2172
11.06	2193
11.07	2193
11.08	2139
11.09	2154
11.1	2131
11.11	2170
11.12	2180
11.13	2193
11.14	2121
11.15	2092
11.16	2151
11.17	2134
11.18	2149
11.19	2131
11.2	2134
11.21	2126
11.22	2151
11.23	2161
11.24	2128
11.25	2129
11.26	2086
11.27	2118
11.28	2145
11.29	2136
11.3	2199
11.31	2162
11.32	2147
11.33	2176
11.34	2144
11.35	2069
11.36	2117
11.37	2219
11.38	2219
11.39	2171
11.4	2156
11.41	2221
11.42	2168
11.43	2177
11.44	2178
11.45	2225
11.46	2200
11.47	2189
11.48	2191
11.49	2240
11.5	2142
11.51	2092
11.52	2121
11.53	2178
11.54	2188
11.55	2210
11.56	2196
11.57	2208
11.58	2196
11.59	2236
11.6	2222
11.61	2211
11.62	2292
11.63	2236
11.64	2224
11.65	2238
11.66	2252
11.67	2216
11.68	2169
11.69	2179
11.7	2225
11.71	2218
11.72	2223
11.73	2191
11.74	2227
11.75	2256
11.76	2259
11.77	2194
11.78	2178
11.79	2226
11.8	2212
11.81	2201
11.82	2200
11.83	2185
11.84	2174
11.85	2201
11.86	2224
11.87	2210
11.88	2194
11.89	2242
11.9	2274
11.91	2184
11.92	2198
11.93	2262
11.94	2233
11.95	2238
11.96	2224
11.97	2259
11.98	2234
11.99	2201
12.0	2244
12.01	2310
12.02	2273
12.03	2239
12.04	2267
12.05	2338
12.06	2300
12.07	2290
12.08	2280
12.09	2243
12.1	2264
12.11	2258
12.12	2307
12.13	2296
12.14	2258
12.15	2187
12.16	2240
12.17	2312
12.18	2274
12.19	2260
12.2	2242
12.21	2251
12.22	2277
12.23	2265
12.24	2297
12.25	2304
12.26	2253
12.27	2243
12.28	2270
12.29	2310
12.3	2236
12.31	2246
12.32	2228
12.33	2243
12.34	2239
12.35	2242
12.36	2290
12.37	2337
12.38	2324
12.39	2279
12.4	2290
12.41	2261
12.42	2304
12.43	2285
12.44	2253
12.45	2288
12.46	2275
12.47	2250
12.48	2298
12.49	2283
12.5	2321
12.51	2331
12.52	2309
12.53	2293
12.54	2272
12.55	2273
12.56	2272
12.57	2274
12.58	2261
12.59	2255
12.6	2330
12.61	2292
12.62	2226
12.63	2271
12.64	2317
12.65	2266
12.66	2282
12.67	2362
12.68	2411
12.69	2349
12.7	2306
12.71	2299
12.72	2336
12.73	2340
12.74	2339
12.75	2346
12.76	2311
12.77	2317
12.78	2354
12.79	2298
12.8	2326
12.81	2308
12.82	2341
12.83	2374
12.84	2334
12.85	2312
12.86	2362
12.87	2364
12.88	2367
12.89	2338
12.9	2345
12.91	2344
12.92	2362
12.93	2350
12.94	2323
12.95	2326
12.96	2337
12.97	2284
12.98	2313
12.99	2385
13.0	2350
13.01	2329
13.02	2344
13.03	2348
13.04	2367
13.05	2315
13.06	2347
13.07	2325
13.08	2303
13.09	2346
13.1	2318
13.11	2330
13.12	2313
13.13	2332
13.14	2395
13.15	2380
13.16	2369
13.17	2373
13.18	2393
13.19	2367
13.2	2335
13.21	2298
13.22	2351
13.23	2361
13.24	2340
13.25	2399
13.26	2379
13.27	2389
13.28	2355
13.29	2369
13.3	2318
13.31	2358
13.32	2366
13.33	2315
13.34	2347
13.35	2346
13.36	2396
13.37	2409
13.38	2349
13.39	2373
13.4	2375
13.41	2335
13.42	2354
13.43	2382
13.44	2368
13.45	2309
13.46	2369
13.47	2417
13.48	2451
13.49	2439
13.5	2379
13.51	2383
13.52	2373
13.53	2338
13.54	2369
13.55	2411
13.56	2430
13.57	2413
13.58	2409
13.59	2365
13.6	2345
13.61	2368
13.62	2381
13.63	2392
13.64	2414
13.65	2444
13.66	2384
13.67	2433
13.68	2467
13.69	2419
13.7	2382
13.71	2430
13.72	2433
13.73	2360
13.74	2405
13.75	2395
13.76	2428
13.77	2413
13.78	2446
13.79	2430
13.8	2414
13.81	2379
13.82	2367
13.83	2354
13.84	2383
13.85	2386
13.86	2346
13.87	2404
13.88	2450
13.89	2435
13.9	2404
13.91	2448
13.92	2385
13.93	2402
13.94	2458
13.95	2457
13.96	2450
13.97	2463
13.98	2448
13.99	2419
14.0	2374
14.01	2459
14.02	2446
14.03	2416
14.04	2425
14.05	2465
14.06	2467
14.07	2428
14.08	2428
14.09	2469
14.1	2453
14.11	2409
14.12	2424
14.13	2368
14.14	2387
14.15	2437
14.16	2440
14.17	2486
14.18	2497
14.19	2500
14.2	2481
14.21	2495
14.22	2448
14.23	2433
14.24	2468
14.25	2437
14.26	2444
14.27	2475
14.28	2459
14.29	2435
14.3	2425
14.31	2452
14.32	2465
14.33	2451
14.34	2478
14.35	2452
14.36	2456
14.37	2497
14.38	2486
14.39	2469
14.4	2442
14.41	2422
14.42	2458
14.43	2433
14.44	2396
14.45	2377
14.46	2379
14.47	2410
14.48	2402
14.49	2397
14.5	2424
14.51	2451
14.52	2430
14.53	2477
14.54	2479
14.55	2434
14.56	2509
14.57	2486
14.58	2459
14.59	2445
14.6	2530
14.61	2538
14.62	2512
14.63	2513
14.64	2452
14.65	2465
14.66	2459
14.67	2412
14.68	2422
14.69	2461
14.7	2444
14.71	2380
14.72	2408
14.73	2467
14.74	2501
14.75	2451
14.76	2428
14.77	2457
14.78	2464
14.79	2468
14.8	2466
14.81	2505
14.82	2490
14.83	2470
14.84	2440
14.85	2454
14.86	2440
14.87	2455
14.88	2500
14.89	2520
14.9	2526
14.91	2512
14.92	2523
14.93	2500
14.94	2464
14.95	2492
14.96	2508
14.97	2485
14.98	2511
14.99	2473
15.0	2459
15.01	2532
15.02	2577
15.03	2558
15.04	2565
15.05	2547
15.06	2508
15.07	2477
15.08	2504
15.09	2548
15.1	2594
15.11	2596
15.12	2559
15.13	2538
15.14	2593
15.15	2630
15.16	2645
15.17	2657
15.18	2647
15.19	2672
15.2	2705
15.21	2771
15.22	2787
15.23	2777
15.24	2803
15.25	2847
15.26	2906
15.27	2930
15.28	2988
15.29	2993
15.3	3007
15.31	3077
15.32	3101
15.33	3156
15.34	3306
15.35	3421
15.36	3537
15.37	3648
15.38	3731
15.39	3797
15.4	3920
15.41	4084
15.42	4279
15.43	4298
15.44	4295
15.45	4257
15.46	4224
15.47	4184
15.48	4092
15.49	3968
15.5	3844
15.51	3703
15.52	3543
15.53	3387
15.54	3249
15.55	3217
15.56	3143
15.57	3068
15.58	3023
15.59	2996
15.6	2943
15.61	2890
15.62	2889
15.63	2846
15.64	2778
15.65	2789
15.66	2754
15.67	2745
15.68	2738
15.69	2714
15.7	2715
15.71	2719
15.72	2696
15.73	2675
15.74	2649
15.75	2636
15.76	2656
15.77	2659
15.78	2653
15.79	2628
15.8	2603
15.81	2590
15.82	2596
15.83	2612
15.84	2644
15.85	2672
15.86	2632
15.87	2609
15.88	2596
15.89	2574
15.9	2545
15.91	2522
15.92	2546
15.93	2543
15.94	2560
15.95	2588
15.96	2548
15.97	2528
15.98	2568
15.99	2525
16.0	2530
16.01	2560
16.02	2549
16.03	2546
16.04	2527
16.05	2533
16.06	2519
16.07	2508
16.08	2532
16.09	2557
16.1	2549
16.11	2491
16.12	2515
16.13	2556
16.14	2508
16.15	2488
16.16	2468
16.17	2438
16.18	2472
16.19	2534
16.2	2536
16.21	2508
16.22	2524
16.23	2535
16.24	2518
16.25	2510
16.26	2517
16.27	2491
16.28	2448
16.29	2512
16.3	2531
16.31	2540
16.32	2549
16.33	2516
16.34	2497
16.35	2474
16.36	2464
16.37	2452
16.38	2446
16.39	2458
16.4	2434
16.41	2463
16.42	2494
16.43	2506
16.44	2502
16.45	2464
16.46	2429
16.47	2461
16.48	2477
16.49	2447
16.5	2456
16.51	2415
16.52	2389
16.53	2393
16.54	2431
16.55	2468
16.56	2473
16.57	2448
16.58	2437
16.59	2447
16.6	2446
16.61	2465
16.62	2491
16.63	2482
16.64	2485
16.65	2472
16.66	2457
16.67	2440
16.68	2444
16.69	2520
16.7	2504
16.71	2440
16.72	2400
16.73	2425
16.74	2464
16.75	2461
16.76	2448
16.77	2449
16.78	2469
16.79	2462
16.8	2458
16.81	2485
16.82	2491
16.83	2475
16.84	2461
16.85	2442
16.86	2418
16.87	2459
16.88	2479
16.89	2445
16.9	2445
16.91	2430
16.92	2416
16.93	2419
16.94	2393
16.95	2396
16.96	2415
16.97	2389
16.98	2357
16.99	2420
17.0	2504
17.01	2471
17.02	2406
17.03	2396
17.04	2424
17.05	2485
17.06	2523
17.07	2455
17.08	2427
17.09	2444
17.1	2473
17.11	2476
17.12	2439
17.13	2436
17.14	2435
17.15	2416
17.16	2394
17.17	2413
17.18	2449
17.19	2451
17.2	2422
17.21	2390
17.22	2409
17.23	2457
17.24	2453
17.25	2443
17.26	2437
17.27	2416
17.28	2409
17.29	2411
17.3	2418
17.31	2420
17.32	2421
17.33	2424
17.34	2426
17.35	2444
17.36	2417
17.37	2393
17.38	2418
17.39	2429
17.4	2392
17.41	2344
17.42	2387
17.43	2449
17.44	2434
17.45	2426
17.46	2451
17.47	2438
17.48	2385
17.49	2390
17.5	2436
17.51	2448
17.52	2443
17.53	2434
17.54	2448
17.55	2470
17.56	2435
17.57	2404
17.58	2439
17.59	2486
17.6	2482
17.61	2402
17.62	2350
17.63	2392
17.64	2431
17.65	2421
17.66	2415
17.67	2417
17.68	2416
17.69	2416
17.7	2424
17.71	2432
17.72	2453
17.73	2464
17.74	2450
17.75	2459
17.76	2459
17.77	2430
17.78	2420
17.79	2411
17.8	2417
17.81	2451
17.82	2466
17.83	2473
17.84	2505
17.85	2496
17.86	2471
17.87	2459
17.88	2438
17.89	2439
17.9	2454
17.91	2456
17.92	2420
17.93	2428
17.94	2446
17.95	2451
17.96	2477
17.97	2458
17.98	2448
17.99	2487
18.0	2498
18.01	2484
18.02	2481
18.03	2505
18.04	2565
18.05	2599
18.06	2588
18.07	2569
18.08	2543
18.09	2544
18.1	2581
18.11	2627
18.12	2611
18.13	2557
18.14	2577
18.15	2648
18.16	2665
18.17	2680
18.18	2718
18.19	2741
18.2	2768
18.21	2742
18.22	2734
18.23	2793
18.24	2809
18.25	2785
18.26	2796
18.27	2797
18.28	2775
18.29	2783
18.3	2819
18.31	2814
18.32	2777
18.33	2804
18.34	2834
18.35	2856
18.36	2909
18.37	2948
18.38	2969
18.39	2973
18.4	2991
18.41	3029
18.42	3038
18.43	3124
18.44	3225
18.45	3310
18.46	3420
18.47	3550
18.48	3737
18.49	3903
18.5	4068
18.51	4270
18.52	4484
18.53	4712
18.54	5083
18.55	5502
18.56	5878
18.57	6323
18.58	6812
18.59	7446
18.6	8231
18.61	9083
18.62	9982
18.63	10862
18.64	11575
18.65	12062
18.66	12406
18.67	12531
18.68	12135
18.69	11352
18.7	10371
18.71	9239
18.72	8092
18.73	7096
18.74	6171
18.75	5291
18.76	4542
18.77	4002
18.78	3665
18.79	3413
18.8	3168
18.81	3043
18.82	2952
18.83	2859
18.84	2760
18.85	2730
18.86	2720
18.87	2728
18.88	2715
18.89	2671
18.9	2641
18.91	2598
18.92	2615
18.93	2659
18.94	2612
18.95	2535
18.96	2523
18.97	2579
18.98	2614
18.99	2582
19.0	2585
19.01	2586
19.02	2546
19.03	2525
19.04	2551
19.05	2546
19.06	2516
19.07	2486
19.08	2475
19.09	2444
19.1	2426
19.11	2416
19.12	2421
19.13	2425
19.14	2418
19.15	2384
19.16	2397
19.17	2415
19.18	2429
19.19	2439
19.2	2453
19.21	2431
19.22	2432
19.23	2411
19.24	2427
19.25	2476
19.26	2437
19.27	2408
19.28	2444
19.29	2436
19.3	2402
19.31	2395
19.32	2394
19.33	2389
19.34	2382
19.35	2387
19.36	2411
19.37	2409
19.38	2419
19.39	2377
19.4	2327
19.41	2341
19.42	2331
19.43	2399
19.44	2400
19.45	2380
19.46	2396
19.47	2381
19.48	2383
19.49	2404
19.5	2349
19.51	2370
19.52	2400
19.53	2375
19.54	2345
19.55	2332
19.56	2343
19.57	2367
19.58	2371
19.59	2366
19.6	2323
19.61	2338
19.62	2328
19.63	2289
19.64	2330
19.65	2345
19.66	2353
19.67	2345
19.68	2346
19.69	2343
19.7	2303
19.71	2287
19.72	2261
19.73	2306
19.74	2354
19.75	2339
19.76	2357
19.77	2378
19.78	2342
19.79	2307
19.8	2327
19.81	2357
19.82	2343
19.83	2322
19.84	2261
19.85	2349
19.86	2333
19.87	2348
19.88	2331
19.89	2325
19.9	2349
19.91	2327
19.92	2328
19.93	2284
19.94	2304
19.95	2338
19.96	2372
19.97	2376
19.98	2360
19.99	2316
20.0	2281
20.01	2254
20.02	2266
20.03	2332
20.04	2345
20.05	2290
20.06	2321
20.07	2342
20.08	2312
20.09	2261
20.1	2303
20.11	2331
20.12	2302
20.13	2289
20.14	2352
20.15	2351
20.16	2279
20.17	2303
20.18	2315
20.19	2257
20.2	2274
20.21	2302
20.22	2286
20.23	2260
20.24	2199
20.25	2232
20.26	2314
20.27	2334
20.28	2266
20.29	2231
20.3	2262
20.31	2282
20.32	2297
20.33	2326
20.34	2319
20.35	2330
20.36	2322
20.37	2313
20.38	2291
20.39	2286
20.4	2266
20.41	2261
20.42	2250
20.43	2250
20.44	2251
20.45	2222
20.46	2223
20.47	2208
20.48	2203
20.49	2286
20.5	2222
20.51	2258
20.52	2279
20.53	2245
20.54	2306
20.55	2257
20.56	2210
20.57	2242
20.58	2217
20.59	2197
20.6	2249
20.61	2248
20.62	2234
20.63	2244
20.64	2225
20.65	2270
20.66	2248
20.67	2198
20.68	2198
20.69	2255
20.7	2246
20.71	2231
20.72	2215
20.73	2195
20.74	2186
20.75	2207
20.76	2189
20.77	2168
20.78	2207
20.79	2203
20.8	2212
20.81	2193
20.82	2191
20.83	2214
20.84	2223
20.85	2218
20.86	2229
20.87	2217
20.88	2223
20.89	2217
20.9	2246
20.91	2196
20.92	2192
20.93	2203
20.94	2177
20.95	2166
20.96	2154
20.97	2173
20.98	2139
20.99	2171
21.0	2200
21.01	2207
21.02	2202
21.03	2190
21.04	2187
21.05	2183
21.06	2206
21.07	2210
21.08	2167
21.09	2181
21.1	2215
21.11	2211
21.12	2197
21.13	2185
21.14	2182
21.15	2192
21.16	2188
21.17	2149
21.18	2155
21.19	2160
21.2	2160
21.21	2183
21.22	2207
21.23	2197
21.24	2185
21.25	2160
21.26	2136
21.27	2144
21.28	2171
21.29	2161
21.3	2177
21.31	2256
21.32	2212
21.33	2146
21.34	2168
21.35	2122
21.36	2149
21.37	2163
21.38	2174
21.39	2178
21.4	2175
21.41	2125
21.42	2144
21.43	2179
21.44	2175
21.45	2157
21.46	2166
21.47	2156
21.48	2139
21.49	2157
21.5	2209
21.51	2213
21.52	2148
21.53	2173
21.54	2181
21.55	2154
21.56	2166
21.57	2097
21.58	2159
21.59	2189
21.6	2182
21.61	2127
21.62	2131
21.63	2098
21.64	2136
21.65	2127
21.66	2096
21.67	2130
21.68	2138
21.69	2160
21.7	2141
21.71	2117
21.72	2137
21.73	2131
21.74	2080
21.75	2139
21.76	2199
21.77	2200
21.78	2211
21.79	2110
21.8	2165
21.81	2131
21.82	2134
21.83	2150
21.84	2116
21.85	2114
21.86	2137
21.87	2099
21.88	2156
21.89	2184
21.9	2169
21.91	2151
21.92	2142
21.93	2098
21.94	2108
21.95	2156
21.96	2119
21.97	2134
21.98	2062
21.99	2089
22.0	2098
22.01	2155
22.02	2133
22.03	2138
22.04	2168
22.05	2137
22.06	2095
22.07	2055
22.08	2088
22.09	2093
22.1	2069
22.11	2098
22.12	2123
22.13	2076
22.14	2102
22.15	2142
22.16	2159
22.17	2124
22.18	2107
22.19	2140
22.2	2147
22.21	2092
22.22	2093
22.23	2076
22.24	2143
22.25	2107
22.26	2116
22.27	2094
22.28	2048
22.29	2063
22.3	2039
22.31	2087
22.32	2122
22.33	2093
22.34	2125
22.35	2107
22.36	2095
22.37	2103
22.38	2086
22.39	2040
22.4	2071
22.41	2084
22.42	2062
22.43	2061
22.44	2058
22.45	2091
22.46	2088
22.47	2151
22.48	2138
22.49	2102
22.5	2084
22.51	2059
22.52	2039
22.53	2014
22.54	2015
22.55	2050
22.56	2071
22.57	2038
22.58	2053
22.59	2031
22.6	2012
22.61	2046
22.62	2067
22.63	2113
22.64	2068
22.65	2058
22.66	2041
22.67	2048
22.68	2016
22.69	2028
22.7	2127
22.71	2124
22.72	2075
22.73	2044
22.74	2075
22.75	2096
22.76	2053
22.77	2060
22.78	2035
22.79	2058
22.8	2004
22.81	2020
22.82	1978
22.83	2032
22.84	2024
22.85	2029
22.86	2021
22.87	2012
22.88	2066
22.89	2098
22.9	2079
22.91	2080
22.92	2051
22.93	2064
22.94	2047
22.95	2030
22.96	1993
22.97	2010
22.98	1994
22.99	2015
23.0	2071
23.01	2064
23.02	2080
23.03	2019
23.04	2062
23.05	2047
23.06	2014
23.07	1967
23.08	2016
23.09	2030
23.1	2041
23.11	2031
23.12	1985
23.13	2041
23.14	2079
23.15	2041
23.16	2005
23.17	2036
23.18	2053
23.19	2069
23.2	2120
23.21	2118
23.22	2089
23.23	2087
23.24	2047
23.25	2046
23.26	2031
23.27	2065
23.28	2030
23.29	2033
23.3	2049
23.31	2057
23.32	2041
23.33	2019
23.34	2040
23.35	2018
23.36	2004
23.37	2047
23.38	2032
23.39	2057
23.4	2068
23.41	2033
23.42	2014
23.43	2074
23.44	2096
23.45	2112
23.46	2108
23.47	2129
23.48	2068
23.49	2026
23.5	2013
23.51	2018
23.52	2004
23.53	2070
23.54	2091
23.55	2074
23.56	2068
23.57	2049
23.58	2050
23.59	2029
23.6	1969
23.61	2007
23.62	1941
23.63	1980
23.64	2028
23.65	2049
23.66	2051
23.67	2002
23.68	1984
23.69	2007
23.7	2013
23.71	2017
23.72	2033
23.73	1995
23.74	2004
23.75	1993
23.76	2018
23.77	2063
23.78	2000
23.79	1978
23.8	1980
23.81	1978
23.82	1959
23.83	2026
23.84	2070
23.85	2059
23.86	2040
23.87	2010
23.88	2009
23.89	1997
23.9	1993
23.91	2021
23.92	2045
23.93	2022
23.94	2014
23.95	2018
23.96	1973
23.97	2004
23.98	2060
23.99	2066
24.0	2037
24.01	2029
24.02	2043
24.03	2051
24.04	2009
24.05	2009
24.06	1999
24.07	2004
24.08	2006
24.09	1998
24.1	1989
24.11	2021
24.12	2028
24.13	2058
24.14	2026
24.15	1977
24.16	1969
24.17	1960
24.18	1988
24.19	2009
24.2	2016
24.21	2014
24.22	2044
24.23	2075
24.24	2075
24.25	2067
24.26	2059
24.27	2013
24.28	2030
24.29	2004
24.3	2025
24.31	2043
24.32	2019
24.33	2010
24.34	2058
24.35	2054
24.36	2020
24.37	2034
24.38	2027
24.39	2046
24.4	2070
24.41	2057
24.42	2094
24.43	2127
24.44	2073
24.45	2084
24.46	2121
24.47	2084
24.48	2123
24.49	2104
24.5	2099
24.51	2101
24.52	2115
24.53	2109
24.54	2048
24.55	2119
24.56	2144
24.57	2124
24.58	2106
24.59	2159
24.6	2175
24.61	2147
24.62	2179
24.63	2195
24.64	2172
24.65	2213
24.66	2237
24.67	2231
24.68	2233
24.69	2289
24.7	2341
24.71	2366
24.72	2429
24.73	2486
24.74	2508
24.75	2566
24.76	2638
24.77	2715
24.78	2798
24.79	2851
24.8	2929
24.81	2961
24.82	3039
24.83	3114
24.84	3195
24.85	3226
24.86	3287
24.87	3250
24.88	3187
24.89	3178
24.9	3156
24.91	3102
24.92	2979
24.93	2883
24.94	2870
24.95	2760
24.96	2624
24.97	2585
24.98	2559
24.99	2452
25.0	2348
25.01	2314
25.02	2252
25.03	2210
25.04	2216
25.05	2206
25.06	2182
25.07	2140
25.08	2100
25.09	2133
25.1	2144
25.11	2085
25.12	2039
25.13	2045
25.14	2036
25.15	2009
25.16	2005
25.17	2030
25.18	2019
25.19	2000
25.2	2029
25.21	2027
25.22	2013
25.23	2006
25.24	2011
25.25	1993
25.26	1991
25.27	2015
25.28	2026
25.29	2002
25.3	1941
25.31	1981
25.32	2027
25.33	1995
25.34	1962
25.35	1986
25.36	1972
25.37	1952
25.38	1962
25.39	1965
25.4	1959
25.41	1993
25.42	1982
25.43	1972
25.44	1958
25.45	1962
25.46	1947
25.47	1927
25.48	1941
25.49	1948
25.5	1921
25.51	1900
25.52	1945
25.53	1970
25.54	1935
25.55	1905
25.56	1889
25.57	1872
25.58	1880
25.59	1914
25.6	1934
25.61	1902
25.62	1900
25.63	1930
25.64	1918
25.65	1885
25.66	1895
25.67	1895
25.68	1877
25.69	1875
25.7	1873
25.71	1842
25.72	1850
25.73	1911
25.74	1932
25.75	1912
25.76	1908
25.77	1917
25.78	1940
25.79	1938
25.8	1940
25.81	1908
25.82	1919
25.83	1869
25.84	1830
25.85	1833
25.86	1852
25.87	1859
25.88	1862
25.89	1901
25.9	1898
25.91	1891
25.92	1874
25.93	1850
25.94	1878
25.95	1865
25.96	1836
25.97	1860
25.98	1886
25.99	1850
26.0	1884
26.01	1873
26.02	1806
26.03	1783
26.04	1838
26.05	1875
26.06	1827
26.07	1802
26.08	1819
26.09	1831
26.1	1849
26.11	1838
26.12	1862
26.13	1884
26.14	1845
26.15	1835
26.16	1856
26.17	1839
26.18	1837
26.19	1855
26.2	1832
26.21	1825
26.22	1837
26.23	1843
26.24	1851
26.25	1820
26.26	1817
26.27	1842
26.28	1857
26.29	1881
26.3	1857
26.31	1809
26.32	1800
26.33	1798
26.34	1775
26.35	1785
26.36	1828
26.37	1845
26.38	1859
26.39	1882
26.4	1892
26.41	1836
26.42	1814
26.43	1832
26.44	1813
26.45	1801
26.46	1803
26.47	1833
26.48	1843
26.49	1843
26.5	1861
26.51	1859
26.52	1829
26.53	1806
26.54	1819
26.55	1823
26.56	1817
26.57	1804
26.58	1795
26.59	1851
26.6	1904
26.61	1885
26.62	1844
26.63	1834
26.64	1842
26.65	1839
26.66	1859
26.67	1877
26.68	1835
26.69	1824
26.7	1841
26.71	1847
26.72	1830
26.73	1811
26.74	1830
26.75	1842
26.76	1830
26.77	1816
26.78	1826
26.79	1837
26.8	1784
26.81	1772
26.82	1813
26.83	1821
26.84	1768
26.85	1750
26.86	1774
26.87	1755
26.88	1744
26.89	1778
26.9	1800
26.91	1808
26.92	1839
26.93	1828
26.94	1805
26.95	1806
26.96	1818
26.97	1818
26.98	1789
26.99	1748
27.0	1717
27.01	1719
27.02	1752
27.03	1755
27.04	1742
27.05	1776
27.06	1827
27.07	1794
27.08	1788
27.09	1803
27.1	1756
27.11	1757
27.12	1767
27.13	1757
27.14	1777
27.15	1786
27.16	1768
27.17	1753
27.18	1739
27.19	1777
27.2	1826
27.21	1813
27.22	1778
27.23	1783
27.24	1800
27.25	1754
27.26	1710
27.27	1710
27.28	1738
27.29	1743
27.3	1747
27.31	1776
27.32	1783
27.33	1790
27.34	1797
27.35	1773
27.36	1757
27.37	1789
27.38	1806
27.39	1783
27.4	1757
27.41	1745
27.42	1763
27.43	1783
27.44	1751
27.45	1721
27.46	1738
27.47	1753
27.48	1748
27.49	1764
27.5	1769
27.51	1769
27.52	1792
27.53	1800
27.54	1801
27.55	1787
27.56	1747
27.57	1725
27.58	1729
27.59	1757
27.6	1766
27.61	1742
27.62	1746
27.63	1786
27.64	1775
27.65	1745
27.66	1742
27.67	1738
27.68	1746
27.69	1757
27.7	1733
27.71	1725
27.72	1777
27.73	1778
27.74	1726
27.75	1685
27.76	1722
27.77	1773
27.78	1773
27.79	1755
27.8	1764
27.81	1752
27.82	1720
27.83	1716
27.84	1741
27.85	1771
27.86	1775
27.87	1767
27.88	1772
27.89	1749
27.9	1692
27.91	1702
27.92	1740
27.93	1755
27.94	1732
27.95	1729
27.96	1703
27.97	1687
27.98	1728
27.99	1724
28.0	1725
28.01	1714
28.02	1707
28.03	1709
28.04	1704
28.05	1744
28.06	1744
28.07	1712
28.08	1717
28.09	1728
28.1	1749
28.11	1750
28.12	1722
28.13	1735
28.14	1755
28.15	1758
28.16	1727
28.17	1702
28.18	1697
28.19	1724
28.2	1762
28.21	1772
28.22	1750
28.23	1720
28.24	1692
28.25	1702
28.26	1722
28.27	1721
28.28	1751
28.29	1748
28.3	1719
28.31	1755
28.32	1762
28.33	1728
28.34	1730
28.35	1694
28.36	1632
28.37	1671
28.38	1743
28.39	1759
28.4	1751
28.41	1760
28.42	1773
28.43	1739
28.44	1691
28.45	1694
28.46	1714
28.47	1727
28.48	1724
28.49	1718
28.5	1703
28.51	1691
28.52	1688
28.53	1687
28.54	1682
28.55	1709
28.56	1734
28.57	1696
28.58	1673
28.59	1717
28.6	1704
28.61	1706
28.62	1731
28.63	1751
28.64	1726
28.65	1734
28.66	1735
28.67	1690
28.68	1661
28.69	1682
28.7	1714
28.71	1728
28.72	1703
28.73	1651
28.74	1654
28.75	1665
28.76	1686
28.77	1715
28.78	1727
28.79	1721
28.8	1741
28.81	1713
28.82	1664
28.83	1633
28.84	1691
28.85	1696
28.86	1703
28.87	1712
28.88	1707
28.89	1690
28.9	1698
28.91	1735
28.92	1707
28.93	1680
28.94	1715
28.95	1733
28.96	1754
28.97	1748
28.98	1725
28.99	1729
29.0	1711
29.01	1696
29.02	1657
29.03	1682
29.04	1703
29.05	1683
29.06	1656
29.07	1638
29.08	1669
29.09	1694
29.1	1667
29.11	1652
29.12	1672
29.13	1685
29.14	1704
29.15	1682
29.16	1662
29.17	1705
29.18	1676
29.19	1679
29.2	1642
29.21	1653
29.22	1664
29.23	1659
29.24	1678
29.25	1693
29.26	1684
29.27	1658
29.28	1695
29.29	1735
29.3	1678
29.31	1670
29.32	1665
29.33	1653
29.34	1644
29.35	1671
29.36	1715
29.37	1725
29.38	1703
29.39	1686
29.4	1667
29.41	1650
29.42	1678
29.43	1716
29.44	1682
29.45	1652
29.46	1615
29.47	1655
29.48	1648
29.49	1647
29.5	1678
29.51	1650
29.52	1685
29.53	1701
29.54	1700
29.55	1679
29.56	1672
29.57	1703
29.58	1720
29.59	1668
29.6	1662
29.61	1675
29.62	1694
29.63	1684
29.64	1633
29.65	1661
29.66	1651
29.67	1638
29.68	1657
29.69	1681
29.7	1631
29.71	1607
29.72	1623
29.73	1623
29.74	1631
29.75	1645
29.76	1659
29.77	1654
29.78	1665
29.79	1711
29.8	1695
29.81	1650
29.82	1656
29.83	1605
29.84	1622
29.85	1681
29.86	1669
29.87	1645
29.88	1643
29.89	1632
29.9	1666
29.91	1668
29.92	1676
29.93	1710
29.94	1703
29.95	1648
29.96	1674
29.97	1702
29.98	1627
29.99	1598
30.0	1604
30.01	1594
30.02	1657
30.03	1692
30.04	1698
30.05	1650
30.06	1626
30.07	1655
30.08	1691
30.09	1689
30.1	1672
30.11	1676
30.12	1655
30.13	1622
30.14	1629
30.15	1647
30.16	1618
30.17	1611
30.18	1602
30.19	1582
30.2	1601
30.21	1612
30.22	1611
30.23	1626
30.24	1587
30.25	1623
30.26	1645
30.27	1680
30.28	1620
30.29	1633
30.3	1678
30.31	1672
30.32	1657
30.33	1640
30.34	1643
30.35	1622
30.36	1619
30.37	1607
30.38	1651
30.39	1647
30.4	1605
30.41	1621
30.42	1689
30.43	1671
30.44	1690
30.45	1710
30.46	1690
30.47	1669
30.48	1635
30.49	1638
30.5	1632
30.51	1685
30.52	1681
30.53	1710
30.54	1679
30.55	1624
30.56	1636
30.57	1662
30.58	1672
30.59	1680
30.6	1713
30.61	1682
30.62	1697
30.63	1700
30.64	1615
30.65	1605
30.66	1659
30.67	1704
30.68	1727
30.69	1712
30.7	1716
30.71	1718
30.72	1698
30.73	1663
30.74	1655
30.75	1714
30.76	1698
30.77	1676
30.78	1686
30.79	1691
30.8	1689
30.81	1695
30.82	1655
30.83	1650
30.84	1671
30.85	1679
30.86	1637
30.87	1633
30.88	1658
30.89	1665
30.9	1657
30.91	1630
30.92	1661
30.93	1698
30.94	1678
30.95	1639
30.96	1652
30.97	1615
30.98	1622
30.99	1585
31.0	1574
31.01	1623
31.02	1614
31.03	1626
31.04	1657
31.05	1629
31.06	1648
31.07	1653
31.08	1631
31.09	1631
31.1	1606
31.11	1641
31.12	1601
31.13	1626
31.14	1624
31.15	1643
31.16	1665
31.17	1661
31.18	1642
31.19	1633
31.2	1625
31.21	1635
31.22	1675
31.23	1640
31.24	1633
31.25	1612
31.26	1574
31.27	1616
31.28	1637
31.29	1614
31.3	1605
31.31	1618
31.32	1664
31.33	1656
31.34	1644
31.35	1624
31.36	1586
31.37	1602
31.38	1576
31.39	1591
31.4	1668
31.41	1661
31.42	1660
31.43	1673
31.44	1611
31.45	1554
31.46	1641
31.47	1646
31.48	1610
31.49	1590
31.5	1620
31.51	1611
31.52	1617
31.53	1654
31.54	1647
31.55	1611
31.56	1648
31.57	1640
31.58	1586
31.59	1567
31.6	1597
31.61	1607
31.62	1617
31.63	1611
31.64	1629
31.65	1642
31.66	1635
31.67	1657
31.68	1626
31.69	1624
31.7	1629
31.71	1620
31.72	1619
31.73	1649
31.74	1615
31.75	1568
31.76	1596
31.77	1659
31.78	1652
31.79	1663
31.8	1626
31.81	1627
31.82	1650
31.83	1612
31.84	1588
31.85	1614
31.86	1654
31.87	1619
31.88	1602
31.89	1636
31.9	1628
31.91	1627
31.92	1641
31.93	1622
31.94	1582
31.95	1591
31.96	1614
31.97	1599
31.98	1623
31.99	1664
32.0	1598
32.01	1595
32.02	1604
32.03	1628
32.04	1639
32.05	1640
32.06	1637
32.07	1631
32.08	1634
32.09	1615
32.1	1602
32.11	1623
32.12	1637
32.13	1611
32.14	1600
32.15	1597
32.16	1603
32.17	1603
32.18	1674
32.19	1620
32.2	1535
32.21	1609
32.22	1648
32.23	1606
32.24	1594
32.25	1604
32.26	1580
32.27	1552
32.28	1587
32.29	1609
32.3	1641
32.31	1596
32.32	1554
32.33	1579
32.34	1610
32.35	1594
32.36	1671
32.37	1614
32.38	1634
32.39	1611
32.4	1640
32.41	1649
32.42	1629
32.43	1633
32.44	1625
32.45	1597
32.46	1628
32.47	1629
32.48	1627
32.49	1610
32.5	1599
32.51	1571
32.52	1594
32.53	1596
32.54	1587
32.55	1570
32.56	1592
32.57	1617
32.58	1646
32.59	1609
32.6	1543
32.61	1592
32.62	1596
32.63	1609
32.64	1605
32.65	1620
32.66	1602
32.67	1610
32.68	1606
32.69	1591
32.7	1576
32.71	1615
32.72	1639
32.73	1621
32.74	1605
32.75	1582
32.76	1551
32.77	1543
32.78	1504
32.79	1565
32.8	1561
32.81	1578
32.82	1587
32.83	1650
32.84	1613
32.85	1566
32.86	1598
32.87	1570
32.88	1579
32.89	1610
32.9	1631
32.91	1635
32.92	1630
32.93	1642
32.94	1637
32.95	1607
32.96	1570
32.97	1630
32.98	1596
32.99	1594
33.0	1649
33.01	1667
33.02	1661
33.03	1594
33.04	1658
33.05	1657
33.06	1619
33.07	1603
33.08	1637
33.09	1677
33.1	1649
33.11	1623
33.12	1644
33.13	1628
33.14	1614
33.15	1695
33.16	1730
33.17	1644
33.18	1619
33.19	1627
33.2	1637
33.21	1615
33.22	1619
33.23	1663
33.24	1633
33.25	1653
33.26	1627
33.27	1608
33.28	1590
33.29	1609
33.3	1607
33.31	1603
33.32	1629
33.33	1619
33.34	1595
33.35	1610
33.36	1599
33.37	1587
33.38	1613
33.39	1604
33.4	1599
33.41	1637
33.42	1620
33.43	1586
33.44	1554
33.45	1568
33.46	1541
33.47	1588
33.48	1638
33.49	1647
33.5	1601
33.51	1594
33.52	1616
33.53	1607
33.54	1623
33.55	1638
33.56	1582
33.57	1555
33.58	1594
33.59	1598
33.6	1572
33.61	1583
33.62	1611
33.63	1580
33.64	1545
33.65	1533
33.66	1570
33.67	1577
33.68	1575
33.69	1602
33.7	1624
33.71	1600
33.72	1624
33.73	1620
33.74	1580
33.75	1594
33.76	1599
33.77	1593
33.78	1591
33.79	1564
33.8	1580
33.81	1591
33.82	1594
33.83	1560
33.84	1537
33.85	1573
33.86	1634
33.87	1589
33.88	1560
33.89	1597
33.9	1601
33.91	1603
33.92	1576
33.93	1575
33.94	1583
33.95	1608
33.96	1587
33.97	1621
33.98	1621
33.99	1579
34.0	1580
34.01	1592
34.02	1603
34.03	1597
34.04	1590
34.05	1566
34.06	1539
34.07	1555
34.08	1553
34.09	1553
34.1	1582
34.11	1588
34.12	1603
34.13	1610
34.14	1563
34.15	1594
34.16	1642
34.17	1595
34.18	1586
34.19	1589
34.2	1592
34.21	1601
34.22	1568
34.23	1575
34.24	1592
34.25	1566
34.26	1528
34.27	1550
34.28	1547
34.29	1558
34.3	1607
34.31	1621
34.32	1621
34.33	1610
34.34	1582
34.35	1577
34.36	1601
34.37	1616
34.38	1572
34.39	1554
34.4	1573
34.41	1582
34.42	1552
34.43	1519
34.44	1542
34.45	1541
34.46	1562
34.47	1548
34.48	1556
34.49	1581
34.5	1600
34.51	1616
34.52	1602
34.53	1600
34.54	1612
34.55	1596
34.56	1562
34.57	1571
34.58	1574
34.59	1580
34.6	1595
34.61	1571
34.62	1574
34.63	1590
34.64	1577
34.65	1576
34.66	1616
34.67	1587
34.68	1569
34.69	1586
34.7	1575
34.71	1544
34.72	1524
34.73	1537
34.74	1559
34.75	1569
34.76	1580
34.77	1596
34.78	1618
34.79	1621
34.8	1615
34.81	1630
34.82	1582
34.83	1540
34.84	1570
34.85	1609
34.86	1617
34.87	1602
34.88	1606
34.89	1595
34.9	1613
34.91	1614
34.92	1614
34.93	1638
34.94	1630
34.95	1650
34.96	1632
34.97	1672
34.98	1682
34.99	1644
35.0	1638
35.01	1646
35.02	1641
35.03	1638
35.04	1652
35.05	1651
35.06	1643
35.07	1651
35.08	1666
35.09	1639
35.1	1642
35.11	1693
35.12	1712
35.13	1679
35.14	1686
35.15	1689
35.16	1679
35.17	1704
35.18	1701
35.19	1674
35.2	1667
35.21	1660
35.22	1653
35.23	1677
35.24	1680
35.25	1667
35.26	1657
35.27	1662
35.28	1689
35.29	1679
35.3	1672
35.31	1695
35.32	1690
35.33	1681
35.34	1707
35.35	1702
35.36	1695
35.37	1712
35.38	1747
35.39	1749
35.4	1716
35.41	1723
35.42	1747
35.43	1764
35.44	1780
35.45	1781
35.46	1784
35.47	1807
35.48	1831
35.49	1855
35.5	1888
35.51	1933
35.52	2015
35.53	2090
35.54	2132
35.55	2167
35.56	2240
35.57	2288
35.58	2352
35.59	2412
35.6	2450
35.61	2453
35.62	2404
35.63	2390
35.64	2394
35.65	2386
35.66	2346
35.67	2332
35.68	2322
35.69	2260
35.7	2248
35.71	2250
35.72	2203
35.73	2170
35.74	2149
35.75	2035
35.76	1907
35.77	1914
35.78	1994
35.79	1998
35.8	1949
35.81	1927
35.82	1933
35.83	1914
35.84	1906
35.85	1924
35.86	1942
35.87	1982
35.88	2021
35.89	2003
35.9	2000
35.91	2048
35.92	2113
35.93	2161
35.94	2171
35.95	2212
35.96	2315
35.97	2417
35.98	2502
35.99	2551
36.0	2635
36.01	2770
36.02	2900
36.03	3116
36.04	3371
36.05	3614
36.06	3936
36.07	4331
36.08	4710
36.09	5021
36.1	5408
36.11	5872
36.12	6246
36.13	6517
36.14	6667
36.15	6719
36.16	6670
36.17	6574
36.18	6421
36.19	6236
36.2	6032
36.21	5776
36.22	5542
36.23	5312
36.24	5070
36.25	4802
36.26	4522
36.27	4254
36.28	3997
36.29	3709
36.3	3417
36.31	3184
36.32	2976
36.33	2786
36.34	2634
36.35	2524
36.36	2453
36.37	2381
36.38	2307
36.39	2222
36.4	2126
36.41	2071
36.42	2031
36.43	1968
36.44	1946
36.45	1946
36.46	1936
36.47	1947
36.48	1931
36.49	1905
36.5	1866
36.51	1835
36.52	1837
36.53	1810
36.54	1782
36.55	1802
36.56	1814
36.57	1792
36.58	1780
36.59	1778
36.6	1758
36.61	1729
36.62	1722
36.63	1739
36.64	1751
36.65	1749
36.66	1742
36.67	1746
36.68	1749
36.69	1715
36.7	1708
36.71	1738
36.72	1761
36.73	1786
36.74	1791
36.75	1748
36.76	1720
36.77	1775
36.78	1839
36.79	1847
36.8	1854
36.81	1899
36.82	1927
36.83	1966
36.84	2031
36.85	2055
36.86	2132
36.87	2238
36.88	2273
36.89	2349
36.9	2431
36.91	2450
36.92	2472
36.93	2474
36.94	2415
36.95	2390
36.96	2383
36.97	2341
36.98	2309
36.99	2291
37.0	2260
37.01	2215
37.02	2180
37.03	2116
37.04	2034
37.05	1974
37.06	1962
37.07	1977
37.08	1942
37.09	1896
37.1	1826
37.11	1764
37.12	1761
37.13	1742
37.14	1707
37.15	1711
37.16	1698
37.17	1670
37.18	1673
37.19	1657
37.2	1656
37.21	1691
37.22	1716
37.23	1701
37.24	1650
37.25	1648
37.26	1674
37.27	1687
37.28	1681
37.29	1646
37.3	1645
37.31	1657
37.32	1697
37.33	1700
37.34	1695
37.35	1707
37.36	1715
37.37	1711
37.38	1686
37.39	1673
37.4	1698
37.41	1740
37.42	1760
37.43	1755
37.44	1746
37.45	1747
37.46	1772
37.47	1834
37.48	1862
37.49	1879
37.5	1927
37.51	1955
37.52	1980
37.53	2016
37.54	2061
37.55	2116
37.56	2208
37.57	2270
37.58	2276
37.59	2277
37.6	2288
37.61	2267
37.62	2249
37.63	2249
37.64	2228
37.65	2179
37.66	2157
37.67	2193
37.68	2257
37.69	2255
37.7	2241
37.71	2257
37.72	2300
37.73	2369
37.74	2428
37.75	2482
37.76	2532
37.77	2656
37.78	2844
37.79	2982
37.8	2994
37.81	2995
37.82	3015
37.83	3021
37.84	2946
37.85	2827
37.86	2713
37.87	2631
37.88	2572
37.89	2560
37.9	2527
37.91	2487
37.92	2366
37.93	2269
37.94	2194
37.95	2073
37.96	1987
37.97	1945
37.98	1884
37.99	1830
38.0	1815
38.01	1790
38.02	1766
38.03	1768
38.04	1755
38.05	1754
38.06	1709
38.07	1676
38.08	1697
38.09	1674
38.1	1658
38.11	1641
38.12	1656
38.13	1682
38.14	1654
38.15	1637
38.16	1605
38.17	1604
38.18	1643
38.19	1694
38.2	1715
38.21	1681
38.22	1633
38.23	1637
38.24	1656
38.25	1663
38.26	1628
38.27	1633
38.28	1634
38.29	1651
38.3	1685
38.31	1668
38.32	1689
38.33	1681
38.34	1685
38.35	1714
38.36	1710
38.37	1742
38.38	1738
38.39	1689
38.4	1700
38.41	1711
38.42	1706
38.43	1732
38.44	1784
38.45	1775
38.46	1755
38.47	1785
38.48	1800
38.49	1789
38.5	1818
38.51	1872
38.52	1910
38.53	1941
38.54	1969
38.55	2026
38.56	2119
38.57	2236
38.58	2306
38.59	2340
38.6	2467
38.61	2683
38.62	2878
38.63	3067
38.64	3313
38.65	3609
38.66	3943
38.67	4319
38.68	4710
38.69	5061
38.7	5406
38.71	5731
38.72	6018
38.73	6178
38.74	6098
38.75	5890
38.76	5622
38.77	5319
38.78	5093
38.79	4869
38.8	4616
38.81	4386
38.82	4232
38.83	4115
38.84	4025
38.85	3773
38.86	3504
38.87	3228
38.88	2939
38.89	2688
38.9	2516
38.91	2359
38.92	2263
38.93	2173
38.94	2075
38.95	2062
38.96	2045
38.97	2011
38.98	1978
38.99	1944
39.0	1940
39.01	1957
39.02	1967
39.03	1988
39.04	1950
39.05	1935
39.06	1986
39.07	2048
39.08	2050
39.09	2048
39.1	2097
39.11	2139
39.12	2139
39.13	2150
39.14	2238
39.15	2273
39.16	2302
39.17	2379
39.18	2444
39.19	2528
39.2	2596
39.21	2705
39.22	2775
39.23	2949
39.24	3103
39.25	3241
39.26	3428
39.27	3638
39.28	3837
39.29	4007
39.3	4178
39.31	4322
39.32	4496
39.33	4586
39.34	4599
39.35	4546
39.36	4611
39.37	4552
39.38	4406
39.39	4243
39.4	4081
39.41	3906
39.42	3822
39.43	3724
39.44	3527
39.45	3415
39.46	3298
39.47	3171
39.48	3027
39.49	2818
39.5	2634
39.51	2529
39.52	2436
39.53	2315
39.54	2198
39.55	2164
39.56	2131
39.57	2078
39.58	1982
39.59	1951
39.6	1910
39.61	1958
39.62	1868
39.63	1847
39.64	1814
39.65	1831
39.66	1835
39.67	1742
39.68	1721
39.69	1750
39.7	1776
39.71	1751
39.72	1746
39.73	1767
39.74	1799
39.75	1762
39.76	1723
39.77	1696
39.78	1677
39.79	1740
39.8	1758
39.81	1695
39.82	1701
39.83	1670
39.84	1684
39.85	1656
39.86	1654
39.87	1668
39.88	1675
39.89	1670
39.9	1649
39.91	1630
39.92	1646
39.93	1679
39.94	1654
39.95	1611
39.96	1608
39.97	1678
39.98	1716
39.99	1668
40.0	1616
40.01	1643
40.02	1663
40.03	1637
40.04	1614
40.05	1671
40.06	1690
40.07	1670
40.08	1607
40.09	1623
40.1	1655
40.11	1655
40.12	1676
40.13	1677
40.14	1640
40.15	1647
40.16	1642
40.17	1654
40.18	1631
40.19	1664
40.2	1678
40.21	1684
40.22	1621
40.23	1643
40.24	1601
40.25	1601
40.26	1627
40.27	1652
40.28	1634
40.29	1612
40.3	1626
40.31	1664
40.32	1689
40.33	1649
40.34	1614
40.35	1601
40.36	1609
40.37	1634
40.38	1619
40.39	1613
40.4	1641
40.41	1650
40.42	1656
40.43	1673
40.44	1656
40.45	1654
40.46	1664
40.47	1692
40.48	1702
40.49	1688
40.5	1677
40.51	1669
40.52	1655
40.53	1637
40.54	1654
40.55	1686
40.56	1698
40.57	1719
40.58	1714
40.59	1677
40.6	1697
40.61	1702
40.62	1709
40.63	1726
40.64	1800
40.65	1735
40.66	1752
40.67	1796
40.68	1749
40.69	1796
40.7	1815
40.71	1802
40.72	1784
40.73	1782
40.74	1859
40.75	1894
40.76	1865
40.77	1911
40.78	1953
40.79	1981
40.8	2014
40.81	2061
40.82	2113
40.83	2143
40.84	2082
40.85	2076
40.86	2094
40.87	2095
40.88	2070
40.89	2085
40.9	2081
40.91	2051
40.92	2002
40.93	2000
40.94	2018
40.95	2003
40.96	1997
40.97	1981
40.98	1902
40.99	1865
41.0	1904
41.01	1878
41.02	1782
41.03	1745
41.04	1783
41.05	1759
41.06	1721
41.07	1763
41.08	1736
41.09	1695
41.1	1697
41.11	1679
41.12	1688
41.13	1655
41.14	1715
41.15	1709
41.16	1705
41.17	1749
41.18	1694
41.19	1627
41.2	1609
41.21	1619
41.22	1606
41.23	1596
41.24	1661
41.25	1684
41.26	1606
41.27	1588
41.28	1618
41.29	1592
41.3	1604
41.31	1647
41.32	1626
41.33	1628
41.34	1610
41.35	1586
41.36	1602
41.37	1589
41.38	1586
41.39	1579
41.4	1586
41.41	1592
41.42	1562
41.43	1577
41.44	1588
41.45	1626
41.46	1618
41.47	1613
41.48	1622
41.49	1554
41.5	1569
41.51	1605
41.52	1619
41.53	1617
41.54	1576
41.55	1637
41.56	1636
41.57	1587
41.58	1623
41.59	1665
41.6	1662
41.61	1608
41.62	1604
41.63	1623
41.64	1618
41.65	1591
41.66	1596
41.67	1606
41.68	1607
41.69	1559
41.7	1587
41.71	1642
41.72	1577
41.73	1598
41.74	1613
41.75	1613
41.76	1592
41.77	1586
41.78	1613
41.79	1640
41.8	1656
41.81	1637
41.82	1599
41.83	1521
41.84	1545
41.85	1596
41.86	1629
41.87	1624
41.88	1634
41.89	1607
41.9	1580
41.91	1598
41.92	1531
41.93	1546
41.94	1612
41.95	1606
41.96	1531
41.97	1585
41.98	1585
41.99	1634
42.0	1639
42.01	1568
42.02	1603
42.03	1613
42.04	1622
42.05	1579
42.06	1592
42.07	1604
42.08	1604
42.09	1606
42.1	1610
42.11	1623
42.12	1590
42.13	1557
42.14	1571
42.15	1604
42.16	1608
42.17	1642
42.18	1666
42.19	1653
42.2	1611
42.21	1634
42.22	1680
42.23	1678
42.24	1622
42.25	1633
42.26	1661
42.27	1622
42.28	1590
42.29	1629
42.3	1700
42.31	1715
42.32	1673
42.33	1641
42.34	1662
42.35	1658
42.36	1705
42.37	1695
42.38	1731
42.39	1730
42.4	1781
42.41	1725
42.42	1775
42.43	1796
42.44	1811
42.45	1815
42.46	1802
42.47	1795
42.48	1798
42.49	1852
42.5	1807
42.51	1821
42.52	1873
42.53	1847
42.54	1801
42.55	1768
42.56	1833
42.57	1853
42.58	1862
42.59	1837
42.6	1820
42.61	1774
42.62	1764
42.63	1783
42.64	1789
42.65	1788
42.66	1797
42.67	1785
42.68	1735
42.69	1729
42.7	1688
42.71	1703
42.72	1698
42.73	1681
42.74	1674
42.75	1651
42.76	1678
42.77	1684
42.78	1669
42.79	1691
42.8	1652
42.81	1623
42.82	1639
42.83	1633
42.84	1649
42.85	1643
42.86	1654
42.87	1619
42.88	1621
42.89	1674
42.9	1635
42.91	1615
42.92	1629
42.93	1627
42.94	1556
42.95	1621
42.96	1622
42.97	1613
42.98	1599
42.99	1583
43.0	1656
43.01	1643
43.02	1656
43.03	1663
43.04	1654
43.05	1604
43.06	1591
43.07	1611
43.08	1622
43.09	1630
43.1	1601
43.11	1590
43.12	1610
43.13	1695
43.14	1650
43.15	1640
43.16	1671
43.17	1658
43.18	1621
43.19	1612
43.2	1571
43.21	1625
43.22	1643
43.23	1617
43.24	1680
43.25	1675
43.26	1634
43.27	1633
43.28	1652
43.29	1649
43.3	1649
43.31	1651
43.32	1610
43.33	1622
43.34	1661
43.35	1672
43.36	1660
43.37	1687
43.38	1687
43.39	1674
43.4	1736
43.41	1759
43.42	1748
43.43	1710
43.44	1763
43.45	1837
43.46	1809
43.47	1782
43.48	1791
43.49	1805
43.5	1820
43.51	1852
43.52	1832
43.53	1818
43.54	1806
43.55	1833
43.56	1896
43.57	1863
43.58	1923
43.59	1973
43.6	2001
43.61	2043
43.62	2043
43.63	2023
43.64	2035
43.65	2054
43.66	2087
43.67	2127
43.68	2162
43.69	2257
43.7	2323
43.71	2346
43.72	2388
43.73	2469
43.74	2570
43.75	2624
43.76	2695
43.77	2810
43.78	2971
43.79	3141
43.8	3313
43.81	3566
43.82	3712
43.83	3958
43.84	4234
43.85	4508
43.86	4953
43.87	5221
43.88	5467
43.89	5899
43.9	6258
43.91	6577
43.92	6847
43.93	7041
43.94	7114
43.95	7033
43.96	6988
43.97	6909
43.98	6803
43.99	6581
44.0	6427
44.01	6199
44.02	6137
44.03	5901
44.04	5815
44.05	5671
44.06	5363
44.07	5171
44.08	4974
44.09	4682
44.1	4417
44.11	4157
44.12	3952
44.13	3685
44.14	3455
44.15	3264
44.16	3086
44.17	2956
44.18	2849
44.19	2845
44.2	2743
44.21	2590
44.22	2509
44.23	2447
44.24	2386
44.25	2365
44.26	2284
44.27	2244
44.28	2237
44.29	2232
44.3	2132
44.31	2079
44.32	2075
44.33	2026
44.34	2028
44.35	2019
44.36	2035
44.37	2018
44.38	1973
44.39	1970
44.4	2002
44.41	1976
44.42	1940
44.43	1936
44.44	1920
44.45	1931
44.46	1874
44.47	1930
44.48	1935
44.49	1872
44.5	1914
44.51	1937
44.52	1885
44.53	1865
44.54	1910
44.55	1958
44.56	1967
44.57	1956
44.58	1937
44.59	1973
44.6	2045
44.61	2024
44.62	2004
44.63	2024
44.64	2006
44.65	2024
44.66	2057
44.67	2052
44.68	2119
44.69	2192
44.7	2149
44.71	2196
44.72	2184
44.73	2227
44.74	2275
44.75	2320
44.76	2336
44.77	2415
44.78	2494
44.79	2525
44.8	2591
44.81	2666
44.82	2735
44.83	2798
44.84	2924
44.85	3034
44.86	3262
44.87	3464
44.88	3650
44.89	3977
44.9	4362
44.91	4792
44.92	5272
44.93	5847
44.94	6512
44.95	7310
44.96	8258
44.97	9283
44.98	10514
44.99	11775
45.0	12806
45.01	13601
45.02	14304
45.03	14547
45.04	14499
45.05	14220
45.06	13617
45.07	12989
45.08	12594
45.09	12257
45.1	12185
45.11	12215
45.12	12449
45.13	12534
45.14	12462
45.15	12194
45.16	11854
45.17	11217
45.18	10358
45.19	9425
45.2	8546
45.21	7753
45.22	7113
45.23	6558
45.24	6138
45.25	5805
45.26	5592
45.27	5222
45.28	4948
45.29	4769
45.3	4496
45.31	4116
45.32	3851
45.33	3592
45.34	3351
45.35	3168
45.36	2983
45.37	2809
45.38	2687
45.39	2633
45.4	2529
45.41	2450
45.42	2384
45.43	2330
45.44	2252
45.45	2177
45.46	2158
45.47	2164
45.48	2122
45.49	2083
45.5	2030
45.51	1993
45.52	2000
45.53	1995
45.54	1975
45.55	1905
45.56	1867
45.57	1844
45.58	1854
45.59	1829
45.6	1812
45.61	1798
45.62	1784
45.63	1818
45.64	1812
45.65	1755
45.66	1746
45.67	1740
45.68	1744
45.69	1757
45.7	1751
45.71	1749
45.72	1750
45.73	1750
45.74	1740
45.75	1724
45.76	1684
45.77	1675
45.78	1708
45.79	1730
45.8	1710
45.81	1701
45.82	1698
45.83	1666
45.84	1680
45.85	1677
45.86	1645
45.87	1678
45.88	1695
45.89	1687
45.9	1670
45.91	1629
45.92	1640
45.93	1644
45.94	1620
45.95	1640
45.96	1664
45.97	1650
45.98	1654
45.99	1676
46.0	1680
46.01	1664
46.02	1666
46.03	1645
46.04	1652
46.05	1657
46.06	1653
46.07	1652
46.08	1658
46.09	1662
46.1	1655
46.11	1643
46.12	1681
46.13	1697
46.14	1688
46.15	1657
46.16	1605
46.17	1590
46.18	1623
46.19	1666
46.2	1618
46.21	1593
46.22	1619
46.23	1646
46.24	1650
46.25	1631
46.26	1611
46.27	1622
46.28	1592
46.29	1604
46.3	1620
46.31	1637
46.32	1627
46.33	1619
46.34	1636
46.35	1609
46.36	1587
46.37	1602
46.38	1589
46.39	1625
46.4	1645
46.41	1590
46.42	1589
46.43	1613
46.44	1607
46.45	1573
46.46	1568
46.47	1599
46.48	1593
46.49	1572
46.5	1596
46.51	1646
46.52	1614
46.53	1578
46.54	1628
46.55	1644
46.56	1613
46.57	1595
46.58	1633
46.59	1626
46.6	1624
46.61	1616
46.62	1629
46.63	1636
46.64	1639
46.65	1603
46.66	1573
46.67	1582
46.68	1592
46.69	1575
46.7	1559
46.71	1584
46.72	1609
46.73	1590
46.74	1602
46.75	1626
46.76	1618
46.77	1620
46.78	1635
46.79	1624
46.8	1646
46.81	1641
46.82	1679
46.83	1695
46.84	1641
46.85	1587
46.86	1588
46.87	1610
46.88	1597
46.89	1601
46.9	1580
46.91	1583
46.92	1582
46.93	1602
46.94	1624
46.95	1596
46.96	1553
46.97	1545
46.98	1575
46.99	1596
47.0	1616
47.01	1595
47.02	1571
47.03	1598
47.04	1637
47.05	1587
47.06	1569
47.07	1571
47.08	1596
47.09	1600
47.1	1606
47.11	1589
47.12	1593
47.13	1633
47.14	1612
47.15	1588
47.16	1630
47.17	1635
47.18	1624
47.19	1607
47.2	1642
47.21	1647
47.22	1642
47.23	1632
47.24	1628
47.25	1610
47.26	1616
47.27	1639
47.28	1612
47.29	1623
47.3	1659
47.31	1629
47.32	1614
47.33	1648
47.34	1679
47.35	1711
47.36	1723
47.37	1713
47.38	1698
47.39	1698
47.4	1733
47.41	1775
47.42	1769
47.43	1746
47.44	1764
47.45	1773
47.46	1765
47.47	1781
47.48	1771
47.49	1720
47.5	1692
47.51	1713
47.52	1734
47.53	1746
47.54	1739
47.55	1726
47.56	1702
47.57	1665
47.58	1670
47.59	1678
47.6	1666
47.61	1644
47.62	1651
47.63	1676
47.64	1675
47.65	1668
47.66	1684
47.67	1703
47.68	1676
47.69	1634
47.7	1602
47.71	1632
47.72	1670
47.73	1669
47.74	1674
47.75	1651
47.76	1622
47.77	1617
47.78	1638
47.79	1645
47.8	1646
47.81	1578
47.82	1576
47.83	1653
47.84	1682
47.85	1686
47.86	1672
47.87	1630
47.88	1639
47.89	1665
47.9	1641
47.91	1653
47.92	1678
47.93	1697
47.94	1704
47.95	1709
47.96	1744
47.97	1791
47.98	1813
47.99	1827
48.0	1863
48.01	1913
48.02	2029
48.03	2121
48.04	2176
48.05	2227
48.06	2301
48.07	2391
48.08	2468
48.09	2538
48.1	2602
48.11	2635
48.12	2655
48.13	2627
48.14	2583
48.15	2522
48.16	2451
48.17	2383
48.18	2380
48.19	2417
48.2	2410
48.21	2364
48.22	2308
48.23	2233
48.24	2171
48.25	2192
48.26	2212
48.27	2191
48.28	2118
48.29	2021
48.3	1955
48.31	1917
48.32	1860
48.33	1815
48.34	1785
48.35	1741
48.36	1716
48.37	1705
48.38	1686
48.39	1679
48.4	1660
48.41	1656
48.42	1663
48.43	1655
48.44	1650
48.45	1652
48.46	1644
48.47	1640
48.48	1630
48.49	1608
48.5	1616
48.51	1628
48.52	1608
48.53	1594
48.54	1634
48.55	1668
48.56	1628
48.57	1608
48.58	1627
48.59	1611
48.6	1614
48.61	1606
48.62	1588
48.63	1616
48.64	1609
48.65	1556
48.66	1552
48.67	1588
48.68	1587
48.69	1567
48.7	1573
48.71	1605
48.72	1599
48.73	1570
48.74	1601
48.75	1644
48.76	1627
48.77	1590
48.78	1567
48.79	1560
48.8	1573
48.81	1592
48.82	1628
48.83	1618
48.84	1575
48.85	1544
48.86	1552
48.87	1584
48.88	1577
48.89	1529
48.9	1545
48.91	1573
48.92	1578
48.93	1581
48.94	1557
48.95	1524
48.96	1532
48.97	1527
48.98	1532
48.99	1562
49.0	1593
49.01	1607
49.02	1588
49.03	1564
49.04	1561
49.05	1566
49.06	1568
49.07	1567
49.08	1585
49.09	1595
49.1	1579
49.11	1550
49.12	1556
49.13	1565
49.14	1535
49.15	1527
49.16	1542
49.17	1536
49.18	1555
49.19	1568
49.2	1563
49.21	1578
49.22	1602
49.23	1607
49.24	1567
49.25	1553
49.26	1585
49.27	1592
49.28	1587
49.29	1569
49.3	1546
49.31	1564
49.32	1576
49.33	1597
49.34	1606
49.35	1614
49.36	1603
49.37	1569
49.38	1532
49.39	1538
49.4	1553
49.41	1549
49.42	1570
49.43	1572
49.44	1544
49.45	1558
49.46	1584
49.47	1574
49.48	1584
49.49	1612
49.5	1621
49.51	1592
49.52	1564
49.53	1557
49.54	1568
49.55	1580
49.56	1582
49.57	1570
49.58	1559
49.59	1539
49.6	1565
49.61	1622
49.62	1604
49.63	1568
49.64	1559
49.65	1572
49.66	1592
49.67	1581
49.68	1580
49.69	1575
49.7	1526
49.71	1536
49.72	1587
49.73	1584
49.74	1564
49.75	1578
49.76	1612
49.77	1613
49.78	1572
49.79	1537
49.8	1553
49.81	1582
49.82	1578
49.83	1586
49.84	1596
49.85	1573
49.86	1560
49.87	1557
49.88	1527
49.89	1488
49.9	1505
49.91	1518
49.92	1516
49.93	1514
49.94	1508
49.95	1531
49.96	1552
49.97	1560
49.98	1570
49.99	1560
50.0	1555
50.01	1550
50.02	1552
50.03	1552
50.04	1563
50.05	1579
50.06	1576
50.07	1574
50.08	1555
50.09	1544
50.1	1542
50.11	1548
50.12	1560
50.13	1553
50.14	1542
50.15	1544
50.16	1565
50.17	1562
50.18	1579
50.19	1582
50.2	1526
50.21	1515
50.22	1554
50.23	1588
50.24	1586
50.25	1543
50.26	1502
50.27	1514
50.28	1551
50.29	1567
50.3	1572
50.31	1565
50.32	1577
50.33	1557
50.34	1529
50.35	1514
50.36	1504
50.37	1535
50.38	1561
50.39	1545
50.4	1543
50.41	1586
50.42	1601
50.43	1599
50.44	1589
50.45	1547
50.46	1529
50.47	1522
50.48	1512
50.49	1530
50.5	1561
50.51	1590
50.52	1569
50.53	1523
50.54	1553
50.55	1554
50.56	1522
50.57	1554
50.58	1587
50.59	1576
50.6	1527
50.61	1548
50.62	1593
50.63	1554
50.64	1551
50.65	1580
50.66	1589
50.67	1580
50.68	1567
50.69	1562
50.7	1549
50.71	1547
50.72	1541
50.73	1534
50.74	1545
50.75	1546
50.76	1523
50.77	1517
50.78	1523
50.79	1557
50.8	1596
50.81	1577
50.82	1562
50.83	1566
50.84	1572
50.85	1544
50.86	1503
50.87	1514
50.88	1514
50.89	1513
50.9	1551
50.91	1566
50.92	1554
50.93	1558
50.94	1566
50.95	1572
50.96	1602
50.97	1606
50.98	1592
50.99	1562
51.0	1532
51.01	1530
51.02	1524
51.03	1517
51.04	1511
51.05	1513
51.06	1512
51.07	1532
51.08	1550
51.09	1543
51.1	1560
51.11	1568
51.12	1560
51.13	1579
51.14	1580
51.15	1556
51.16	1556
51.17	1588
51.18	1612
51.19	1589
51.2	1551
51.21	1528
51.22	1514
51.23	1511
51.24	1534
51.25	1541
51.26	1544
51.27	1561
51.28	1538
51.29	1512
51.3	1527
51.31	1545
51.32	1547
51.33	1567
51.34	1580
51.35	1580
51.36	1568
51.37	1532
51.38	1536
51.39	1559
51.4	1576
51.41	1600
51.42	1586
51.43	1563
51.44	1522
51.45	1514
51.46	1532
51.47	1549
51.48	1589
51.49	1604
51.5	1568
51.51	1546
51.52	1574
51.53	1598
51.54	1589
51.55	1572
51.56	1546
51.57	1521
51.58	1507
51.59	1520
51.6	1543
51.61	1574
51.62	1595
51.63	1577
51.64	1573
51.65	1574
51.66	1565
51.67	1581
51.68	1600
51.69	1593
51.7	1594
51.71	1624
51.72	1616
51.73	1614
51.74	1618
51.75	1598
51.76	1599
51.77	1622
51.78	1629
51.79	1602
51.8	1588
51.81	1564
51.82	1530
51.83	1540
51.84	1562
51.85	1566
51.86	1567
51.87	1582
51.88	1587
51.89	1594
51.9	1593
51.91	1569
51.92	1552
51.93	1541
51.94	1559
51.95	1570
51.96	1582
51.97	1616
51.98	1616
51.99	1608
52.0	1600
52.01	1558
52.02	1548
52.03	1574
52.04	1558
52.05	1534
52.06	1531
52.07	1549
52.08	1576
52.09	1577
52.1	1581
52.11	1556
52.12	1532
52.13	1545
52.14	1560
52.15	1550
52.16	1557
52.17	1559
52.18	1553
52.19	1569
52.2	1588
52.21	1571
52.22	1556
52.23	1554
52.24	1556
52.25	1573
52.26	1587
52.27	1582
52.28	1584
52.29	1569
52.3	1553
52.31	1577
52.32	1601
52.33	1562
52.34	1547
52.35	1568
52.36	1591
52.37	1613
52.38	1600
52.39	1565
52.4	1575
52.41	1578
52.42	1547
52.43	1539
52.44	1552
52.45	1560
52.46	1564
52.47	1568
52.48	1568
52.49	1557
52.5	1561
52.51	1564
52.52	1558
52.53	1573
52.54	1588
52.55	1547
52.56	1522
52.57	1549
52.58	1558
52.59	1559
52.6	1554
52.61	1546
52.62	1522
52.63	1514
52.64	1543
52.65	1540
52.66	1527
52.67	1538
52.68	1530
52.69	1532
52.7	1575
52.71	1596
52.72	1597
52.73	1575
52.74	1537
52.75	1560
52.76	1591
52.77	1580
52.78	1582
52.79	1573
52.8	1537
52.81	1542
52.82	1557
52.83	1555
52.84	1562
52.85	1548
52.86	1534
52.87	1557
52.88	1564
52.89	1585
52.9	1619
52.91	1578
52.92	1545
52.93	1570
52.94	1568
52.95	1566
52.96	1584
52.97	1565
52.98	1563
52.99	1562
53.0	1561
53.01	1551
53.02	1576
53.03	1591
53.04	1565
53.05	1571
53.06	1547
53.07	1537
53.08	1571
53.09	1568
53.1	1550
53.11	1560
53.12	1563
53.13	1544
53.14	1547
53.15	1590
53.16	1596
53.17	1577
53.18	1574
53.19	1601
53.2	1570
53.21	1529
53.22	1545
53.23	1535
53.24	1518
53.25	1536
53.26	1572
53.27	1601
53.28	1583
53.29	1554
53.3	1538
53.31	1527
53.32	1568
53.33	1607
53.34	1607
53.35	1577
53.36	1559
53.37	1587
53.38	1575
53.39	1552
53.4	1598
53.41	1600
53.42	1561
53.43	1540
53.44	1562
53.45	1570
53.46	1579
53.47	1572
53.48	1565
53.49	1573
53.5	1590
53.51	1579
53.52	1548
53.53	1529
53.54	1537
53.55	1581
53.56	1620
53.57	1585
53.58	1560
53.59	1585
53.6	1605
53.61	1587
53.62	1575
53.63	1562
53.64	1574
53.65	1594
53.66	1567
53.67	1564
53.68	1566
53.69	1576
53.7	1597
53.71	1577
53.72	1575
53.73	1581
53.74	1567
53.75	1551
53.76	1592
53.77	1608
53.78	1579
53.79	1562
53.8	1589
53.81	1609
53.82	1580
53.83	1590
53.84	1585
53.85	1568
53.86	1577
53.87	1610
53.88	1651
53.89	1640
53.9	1598
53.91	1608
53.92	1637
53.93	1638
53.94	1638
53.95	1676
53.96	1682
53.97	1657
53.98	1689
53.99	1686
54.0	1688
54.01	1715
54.02	1690
54.03	1682
54.04	1695
54.05	1760
54.06	1779
54.07	1729
54.08	1757
54.09	1816
54.1	1832
54.11	1811
54.12	1796
54.13	1781
54.14	1747
54.15	1732
54.16	1738
54.17	1730
54.18	1715
54.19	1746
54.2	1769
54.21	1755
54.22	1763
54.23	1749
54.24	1720
54.25	1711
54.26	1701
54.27	1657
54.28	1642
54.29	1639
54.3	1649
54.31	1656
54.32	1668
54.33	1651
54.34	1629
54.35	1640
54.36	1665
54.37	1661
54.38	1640
54.39	1618
54.4	1576
54.41	1574
54.42	1601
54.43	1576
54.44	1567
54.45	1577
54.46	1587
54.47	1545
54.48	1536
54.49	1566
54.5	1586
54.51	1594
54.52	1570
54.53	1557
54.54	1594
54.55	1629
54.56	1609
54.57	1588
54.58	1591
54.59	1618
54.6	1605
54.61	1598
54.62	1602
54.63	1593
54.64	1563
54.65	1562
54.66	1604
54.67	1595
54.68	1577
54.69	1558
54.7	1551
54.71	1556
54.72	1569
54.73	1566
54.74	1564
54.75	1572
54.76	1577
54.77	1592
54.78	1566
54.79	1510
54.8	1488
54.81	1494
54.82	1530
54.83	1545
54.84	1594
54.85	1619
54.86	1579
54.87	1576
54.88	1564
54.89	1558
54.9	1591
54.91	1597
54.92	1538
54.93	1535
54.94	1563
54.95	1573
54.96	1535
54.97	1525
54.98	1559
54.99	1578
55.0	1589
55.01	1585
55.02	1572
55.03	1560
55.04	1546
55.05	1529
55.06	1527
55.07	1565
55.08	1544
55.09	1537
55.1	1564
55.11	1590
55.12	1581
55.13	1581
55.14	1603
55.15	1605
55.16	1583
55.17	1580
55.18	1592
55.19	1570
55.2	1534
55.21	1530
55.22	1546
55.23	1524
55.24	1538
55.25	1577
55.26	1572
55.27	1570
55.28	1552
55.29	1559
55.3	1598
55.31	1618
55.32	1592
55.33	1563
55.34	1569
55.35	1583
55.36	1604
55.37	1601
55.38	1559
55.39	1540
55.4	1560
55.41	1551
55.42	1550
55.43	1534
55.44	1538
55.45	1583
55.46	1579
55.47	1573
55.48	1607
55.49	1547
55.5	1536
55.51	1592
55.52	1611
55.53	1604
55.54	1599
55.55	1598
55.56	1598
55.57	1601
55.58	1587
55.59	1558
55.6	1565
55.61	1579
55.62	1570
55.63	1580
55.64	1586
55.65	1584
55.66	1562
55.67	1594
55.68	1633
55.69	1586
55.7	1581
55.71	1598
55.72	1570
55.73	1561
55.74	1566
55.75	1559
55.76	1566
55.77	1563
55.78	1586
55.79	1570
55.8	1543
55.81	1562
55.82	1579
55.83	1557
55.84	1555
55.85	1594
55.86	1602
55.87	1573
55.88	1553
55.89	1559
55.9	1573
55.91	1547
55.92	1557
55.93	1567
55.94	1573
55.95	1567
55.96	1549
55.97	1524
55.98	1524
55.99	1552
56.0	1568
56.01	1604
56.02	1612
56.03	1567
56.04	1545
56.05	1579
56.06	1581
56.07	1546
56.08	1520
56.09	1540
56.1	1540
56.11	1561
56.12	1597
56.13	1609
56.14	1621
56.15	1616
56.16	1567
56.17	1563
56.18	1607
56.19	1601
56.2	1584
56.21	1588
56.22	1562
56.23	1580
56.24	1597
56.25	1603
56.26	1631
56.27	1635
56.28	1626
56.29	1553
56.3	1558
56.31	1619
56.32	1600
56.33	1582
56.34	1604
56.35	1594
56.36	1582
56.37	1579
56.38	1571
56.39	1545
56.4	1560
56.41	1593
56.42	1623
56.43	1609
56.44	1575
56.45	1594
56.46	1624
56.47	1612
56.48	1584
56.49	1565
56.5	1570
56.51	1567
56.52	1570
56.53	1576
56.54	1611
56.55	1636
56.56	1601
56.57	1594
56.58	1610
56.59	1559
56.6	1558
56.61	1576
56.62	1604
56.63	1572
56.64	1564
56.65	1585
56.66	1592
56.67	1598
56.68	1590
56.69	1580
56.7	1577
56.71	1590
56.72	1579
56.73	1541
56.74	1542
56.75	1580
56.76	1583
56.77	1609
56.78	1581
56.79	1561
56.8	1586
56.81	1619
56.82	1623
56.83	1585
56.84	1590
56.85	1594
56.86	1620
56.87	1616
56.88	1609
56.89	1608
56.9	1592
56.91	1568
56.92	1568
56.93	1607
56.94	1617
56.95	1607
56.96	1600
56.97	1609
56.98	1626
56.99	1625
57.0	1581
57.01	1635
57.02	1646
57.03	1612
57.04	1592
57.05	1592
57.06	1593
57.07	1606
57.08	1611
57.09	1575
57.1	1572
57.11	1579
57.12	1590
57.13	1589
57.14	1575
57.15	1593
57.16	1618
57.17	1624
57.18	1605
57.19	1592
57.2	1588
57.21	1608
57.22	1621
57.23	1642
57.24	1646
57.25	1625
57.26	1615
57.27	1614
57.28	1598
57.29	1607
57.3	1615
57.31	1631
57.32	1613
57.33	1622
57.34	1656
57.35	1638
57.36	1641
57.37	1617
57.38	1598
57.39	1609
57.4	1623
57.41	1622
57.42	1640
57.43	1614
57.44	1602
57.45	1604
57.46	1639
57.47	1677
57.48	1673
57.49	1654
57.5	1668
57.51	1679
57.52	1653
57.53	1648
57.54	1646
57.55	1652
57.56	1673
57.57	1659
57.58	1631
57.59	1663
57.6	1696
57.61	1659
57.62	1650
57.63	1642
57.64	1648
57.65	1653
57.66	1680
57.67	1686
57.68	1658
57.69	1663
57.7	1662
57.71	1666
57.72	1682
57.73	1696
57.74	1694
57.75	1735
57.76	1739
57.77	1706
57.78	1698
57.79	1686
57.8	1727
57.81	1793
57.82	1817
57.83	1774
57.84	1789
57.85	1777
57.86	1771
57.87	1763
57.88	1797
57.89	1836
57.9	1836
57.91	1836
57.92	1874
57.93	1928
57.94	1928
57.95	1951
57.96	2003
57.97	2053
57.98	2077
57.99	2138
58.0	2183
58.01	2244
58.02	2339
58.03	2436
58.04	2574
58.05	2661
58.06	2664
58.07	2773
58.08	2946
58.09	3085
58.1	3226
58.11	3295
58.12	3304
58.13	3351
58.14	3411
58.15	3338
58.16	3256
58.17	3259
58.18	3195
58.19	3173
58.2	3115
58.21	3045
58.22	2984
58.23	2986
58.24	2984
58.25	3001
58.26	3024
58.27	2957
58.28	2917
58.29	2918
58.3	2898
58.31	2802
58.32	2758
58.33	2728
58.34	2643
58.35	2547
58.36	2500
58.37	2469
58.38	2363
58.39	2290
58.4	2234
58.41	2165
58.42	2176
58.43	2168
58.44	2118
58.45	2137
58.46	2061
58.47	2004
58.48	1986
58.49	1971
58.5	1961
58.51	1950
58.52	1925
58.53	1899
58.54	1881
58.55	1842
58.56	1817
58.57	1838
58.58	1839
58.59	1773
58.6	1761
58.61	1719
58.62	1729
58.63	1745
58.64	1768
58.65	1744
58.66	1711
58.67	1720
58.68	1706
58.69	1684
58.7	1679
58.71	1689
58.72	1716
58.73	1723
58.74	1734
58.75	1715
58.76	1741
58.77	1739
58.78	1720
58.79	1708
58.8	1686
58.81	1691
58.82	1685
58.83	1664
58.84	1652
58.85	1688
58.86	1717
58.87	1767
58.88	1720
58.89	1684
58.9	1704
58.91	1698
58.92	1651
58.93	1656
58.94	1686
58.95	1614
58.96	1603
58.97	1676
58.98	1690
58.99	1671
59.0	1609
59.01	1603
59.02	1650
59.03	1682
59.04	1651
59.05	1630
59.06	1677
59.07	1715
59.08	1711
59.09	1709
59.1	1702
59.11	1710
59.12	1659
59.13	1673
59.14	1730
59.15	1715
59.16	1672
59.17	1710
59.18	1737
59.19	1727
59.2	1702
59.21	1678
59.22	1692
59.23	1735
59.24	1724
59.25	1716
59.26	1747
59.27	1718
59.28	1709
59.29	1718
59.3	1697
59.31	1677
59.32	1646
59.33	1693
59.34	1737
59.35	1694
59.36	1648
59.37	1650
59.38	1664
59.39	1668
59.4	1702
59.41	1714
59.42	1665
59.43	1665
59.44	1696
59.45	1652
59.46	1636
59.47	1650
59.48	1656
59.49	1642
59.5	1639
59.51	1642
59.52	1651
59.53	1619
59.54	1606
59.55	1607
59.56	1607
59.57	1655
59.58	1652
59.59	1654
59.6	1647
59.61	1656
59.62	1642
59.63	1623
59.64	1640
59.65	1667
59.66	1621
59.67	1582
59.68	1558
59.69	1569
59.7	1624
59.71	1582
59.72	1590
59.73	1590
59.74	1615
59.75	1615
59.76	1650
59.77	1634
59.78	1617
59.79	1611
59.8	1616
59.81	1630
59.82	1664
59.83	1652
59.84	1638
59.85	1621
59.86	1621
59.87	1598
59.88	1584
59.89	1574
59.9	1621
59.91	1627
59.92	1610
59.93	1578
59.94	1607
59.95	1639
59.96	1656
59.97	1593
59.98	1544
59.99	1581
60.0	1652
60.01	1637
60.02	1623
60.03	1653
60.04	1634
60.05	1606
60.06	1632
60.07	1649
60.08	1648
60.09	1618
60.1	1623
60.11	1631
60.12	1606
60.13	1623
60.14	1665
60.15	1645
60.16	1629
60.17	1658
60.18	1657
60.19	1632
60.2	1607
60.21	1581
60.22	1636
60.23	1657
60.24	1642
60.25	1600
60.26	1601
60.27	1576
60.28	1586
60.29	1638
60.3	1649
60.31	1660
60.32	1640
60.33	1663
60.34	1650
60.35	1629
60.36	1608
60.37	1595
60.38	1576
60.39	1647
60.4	1646
60.41	1618
60.42	1618
60.43	1648
60.44	1675
60.45	1674
60.46	1644
60.47	1661
60.48	1626
60.49	1597
60.5	1645
60.51	1663
60.52	1668
60.53	1697
60.54	1645
60.55	1628
60.56	1632
60.57	1639
60.58	1639
60.59	1633
60.6	1626
60.61	1698
60.62	1716
60.63	1724
60.64	1701
60.65	1694
60.66	1669
60.67	1654
60.68	1687
60.69	1641
60.7	1654
60.71	1715
60.72	1707
60.73	1684
60.74	1662
60.75	1686
60.76	1674
60.77	1706
60.78	1655
60.79	1669
60.8	1704
60.81	1656
60.82	1660
60.83	1690
60.84	1738
60.85	1712
60.86	1688
60.87	1688
60.88	1716
60.89	1739
60.9	1731
60.91	1721
60.92	1699
60.93	1681
60.94	1728
60.95	1810
60.96	1779
60.97	1730
60.98	1745
60.99	1767
61.0	1768
61.01	1819
61.02	1841
61.03	1831
61.04	1824
61.05	1820
61.06	1858
61.07	1882
61.08	1900
61.09	1918
61.1	1951
61.11	1934
61.12	1932
61.13	1965
61.14	1986
61.15	1998
61.16	2020
61.17	2047
61.18	2030
61.19	2078
61.2	2145
61.21	2187
61.22	2226
61.23	2289
61.24	2336
61.25	2472
61.26	2557
61.27	2653
61.28	2756
61.29	2875
61.3	3021
61.31	3136
61.32	3243
61.33	3445
61.34	3724
61.35	3890
61.36	4046
61.37	4155
61.38	4186
61.39	4092
61.4	4010
61.41	4001
61.42	3844
61.43	3714
61.44	3600
61.45	3450
61.46	3327
61.47	3223
61.48	3192
61.49	3161
61.5	3149
61.51	3212
61.52	3241
61.53	3188
61.54	3158
61.55	3138
61.56	3059
61.57	3001
61.58	2939
61.59	2858
61.6	2777
61.61	2608
61.62	2509
61.63	2445
61.64	2408
61.65	2293
61.66	2223
61.67	2147
61.68	2126
61.69	2087
61.7	2061
61.71	2031
61.72	1991
61.73	1969
61.74	1949
61.75	1960
61.76	1929
61.77	1919
61.78	1947
61.79	1952
61.8	1942
61.81	1909
61.82	1886
61.83	1912
61.84	1896
61.85	1906
61.86	1911
61.87	1930
61.88	1948
61.89	1940
61.9	1987
61.91	1932
61.92	1934
61.93	1929
61.94	1979
61.95	2026
61.96	2055
61.97	2085
61.98	2097
61.99	2138
62.0	2111
62.01	2089
62.02	2059
62.03	2088
62.04	2156
62.05	2063
62.06	2029
62.07	2060
62.08	2040
62.09	1992
62.1	1950
62.11	1946
62.12	1985
62.13	1919
62.14	1962
62.15	2015
62.16	2018
62.17	1938
62.18	1917
62.19	1949
62.2	1962
62.21	1951
62.22	1900
62.23	1909
62.24	1927
62.25	1859
62.26	1796
62.27	1835
62.28	1810
62.29	1836
62.3	1803
62.31	1831
62.32	1831
62.33	1828
62.34	1769
62.35	1758
62.36	1757
62.37	1729
62.38	1705
62.39	1696
62.4	1714
62.41	1736
62.42	1745
62.43	1675
62.44	1667
62.45	1722
62.46	1738
62.47	1791
62.48	1746
62.49	1759
62.5	1749
62.51	1782
62.52	1810
62.53	1810
62.54	1769
62.55	1748
62.56	1778
62.57	1748
62.58	1689
62.59	1697
62.6	1715
62.61	1717
62.62	1746
62.63	1726
62.64	1687
62.65	1704
62.66	1755
62.67	1734
62.68	1726
62.69	1731
62.7	1650
62.71	1696
62.72	1755
62.73	1773
62.74	1723
62.75	1677
62.76	1645
62.77	1682
62.78	1747
62.79	1763
62.8	1741
62.81	1729
62.82	1715
62.83	1714
62.84	1735
62.85	1739
62.86	1762
62.87	1706
62.88	1730
62.89	1748
62.9	1769
62.91	1727
62.92	1759
62.93	1711
62.94	1755
62.95	1762
62.96	1767
62.97	1780
62.98	1798
62.99	1827
63.0	1852
63.01	1818
63.02	1837
63.03	1831
63.04	1824
63.05	1815
63.06	1802
63.07	1783
63.08	1785
63.09	1814
63.1	1791
63.11	1766
63.12	1798
63.13	1793
63.14	1769
63.15	1803
63.16	1779
63.17	1804
63.18	1779
63.19	1839
63.2	1842
63.21	1840
63.22	1804
63.23	1828
63.24	1866
63.25	1839
63.26	1833
63.27	1882
63.28	1877
63.29	1789
63.3	1766
63.31	1840
63.32	1816
63.33	1846
63.34	1835
63.35	1783
63.36	1804
63.37	1823
63.38	1815
63.39	1839
63.4	1828
63.41	1768
63.42	1791
63.43	1817
63.44	1807
63.45	1784
63.46	1808
63.47	1846
63.48	1862
63.49	1830
63.5	1877
63.51	1942
63.52	1936
63.53	1884
63.54	1857
63.55	1866
63.56	1892
63.57	1970
63.58	1958
63.59	1951
63.6	1978
63.61	1971
63.62	1979
63.63	1991
63.64	2062
63.65	2073
63.66	2095
63.67	2149
63.68	2213
63.69	2237
63.7	2288
63.71	2339
63.72	2424
63.73	2524
63.74	2628
63.75	2797
63.76	2961
63.77	3162
63.78	3298
63.79	3565
63.8	3766
63.81	3981
63.82	4340
63.83	4455
63.84	4514
63.85	4585
63.86	4707
63.87	4630
63.88	4541
63.89	4398
63.9	4310
63.91	4191
63.92	3981
63.93	3903
63.94	3825
63.95	3722
63.96	3660
63.97	3667
63.98	3651
63.99	3690
64.0	3665
64.01	3590
64.02	3598
64.03	3598
64.04	3486
64.05	3421
64.06	3377
64.07	3275
64.08	3141
64.09	2992
64.1	2919
64.11	2800
64.12	2693
64.13	2563
64.14	2502
64.15	2494
64.16	2400
64.17	2322
64.18	2279
64.19	2159
64.2	2207
64.21	2110
64.22	2084
64.23	2084
64.24	2037
64.25	2060
64.26	2035
64.27	1982
64.28	1976
64.29	1964
64.3	1879
64.31	1879
64.32	1851
64.33	1845
64.34	1853
64.35	1858
64.36	1796
64.37	1805
64.38	1794
64.39	1856
64.4	1853
64.41	1843
64.42	1798
64.43	1838
64.44	1786
64.45	1791
64.46	1821
64.47	1809
64.48	1777
64.49	1755
64.5	1756
64.51	1766
64.52	1748
64.53	1721
64.54	1729
64.55	1770
64.56	1757
64.57	1726
64.58	1723
64.59	1736
64.6	1798
64.61	1788
64.62	1759
64.63	1748
64.64	1748
64.65	1793
64.66	1766
64.67	1797
64.68	1743
64.69	1707
64.7	1746
64.71	1758
64.72	1792
64.73	1766
64.74	1781
64.75	1887
64.76	1915
64.77	1956
64.78	1943
64.79	1967
64.8	1993
64.81	2041
64.82	2121
64.83	2152
64.84	2157
64.85	2210
64.86	2217
64.87	2178
64.88	2188
64.89	2137
64.9	2107
64.91	2088
64.92	2108
64.93	2127
64.94	2046
64.95	2004
64.96	2003
64.97	2005
64.98	1990
64.99	1960
65.0	1975
65.01	2061
65.02	2089
65.03	2055
65.04	2026
65.05	2001
65.06	2007
65.07	1993
65.08	1935
65.09	1925
65.1	1901
65.11	1912
65.12	1897
65.13	1908
65.14	1867
65.15	1838
65.16	1844
65.17	1875
65.18	1899
65.19	1831
65.2	1796
65.21	1870
65.22	1900
65.23	1911
65.24	1896
65.25	1878
65.26	1894
65.27	1864
65.28	1889
65.29	1892
65.3	1898
65.31	1908
65.32	1910
65.33	1923
65.34	1901
65.35	1956
65.36	2000
65.37	2037
65.38	2103
65.39	2204
65.4	2292
65.41	2318
65.42	2383
65.43	2540
65.44	2617
65.45	2744
65.46	2987
65.47	3159
65.48	3327
65.49	3542
65.5	3675
65.51	3831
65.52	3899
65.53	4049
65.54	4069
65.55	3981
65.56	3836
65.57	3639
65.58	3498
65.59	3363
65.6	3220
65.61	3040
65.62	3037
65.63	2860
65.64	2793
65.65	2806
65.66	2857
65.67	2890
65.68	2886
65.69	2960
65.7	3073
65.71	3082
65.72	3009
65.73	2914
65.74	2843
65.75	2796
65.76	2649
65.77	2514
65.78	2443
65.79	2366
65.8	2243
65.81	2159
65.82	2098
65.83	2079
65.84	1982
65.85	1946
65.86	1939
65.87	1902
65.88	1887
65.89	1867
65.9	1851
65.91	1868
65.92	1822
65.93	1802
65.94	1799
65.95	1811
65.96	1802
65.97	1794
65.98	1808
65.99	1797
66.0	1766
66.01	1692
66.02	1730
66.03	1715
66.04	1735
66.05	1719
66.06	1716
66.07	1682
66.08	1665
66.09	1665
66.1	1665
66.11	1754
66.12	1764
66.13	1734
66.14	1703
66.15	1697
66.16	1703
66.17	1678
66.18	1721
66.19	1738
66.2	1683
66.21	1734
66.22	1744
66.23	1715
66.24	1704
66.25	1686
66.26	1673
66.27	1704
66.28	1723
66.29	1679
66.3	1691
66.31	1710
66.32	1677
66.33	1715
66.34	1727
66.35	1708
66.36	1765
66.37	1738
66.38	1721
66.39	1744
66.4	1688
66.41	1708
66.42	1718
66.43	1702
66.44	1716
66.45	1737
66.46	1759
66.47	1792
66.48	1781
66.49	1799
66.5	1816
66.51	1800
66.52	1822
66.53	1877
66.54	1912
66.55	1959
66.56	2002
66.57	1977
66.58	1975
66.59	2089
66.6	2157
66.61	2206
66.62	2230
66.63	2157
66.64	2112
66.65	2102
66.66	2124
66.67	2055
66.68	2020
66.69	1996
66.7	1914
66.71	1892
66.72	1986
66.73	1941
66.74	1903
66.75	1938
66.76	1956
66.77	1983
66.78	1973
66.79	1999
66.8	2011
66.81	2002
66.82	2031
66.83	2041
66.84	1957
66.85	1966
66.86	1951
66.87	1872
66.88	1873
66.89	1896
66.9	1899
66.91	1829
66.92	1908
66.93	1883
66.94	1928
66.95	1890
66.96	1899
66.97	1877
66.98	1915
66.99	1921
67.0	1950
67.01	1974
67.02	2044
67.03	2111
67.04	2163
67.05	2207
67.06	2248
67.07	2294
67.08	2347
67.09	2484
67.1	2538
67.11	2668
67.12	2705
67.13	2764
67.14	2863
67.15	2892
67.16	2844
67.17	2789
67.18	2782
67.19	2726
67.2	2703
67.21	2692
67.22	2576
67.23	2457
67.24	2442
67.25	2494
67.26	2454
67.27	2401
67.28	2395
67.29	2443
67.3	2493
67.31	2467
67.32	2448
67.33	2464
67.34	2363
67.35	2350
67.36	2393
67.37	2294
67.38	2224
67.39	2282
67.4	2264
67.41	2152
67.42	2090
67.43	2101
67.44	2067
67.45	2022
67.46	1993
67.47	1959
67.48	1935
67.49	1894
67.5	1934
67.51	1916
67.52	1846
67.53	1864
67.54	1845
67.55	1862
67.56	1812
67.57	1738
67.58	1774
67.59	1742
67.6	1710
67.61	1771
67.62	1751
67.63	1737
67.64	1778
67.65	1735
67.66	1690
67.67	1678
67.68	1680
67.69	1682
67.7	1676
67.71	1718
67.72	1696
67.73	1706
67.74	1664
67.75	1649
67.76	1654
67.77	1669
67.78	1701
67.79	1655
67.8	1695
67.81	1685
67.82	1669
67.83	1649
67.84	1669
67.85	1651
67.86	1613
67.87	1609
67.88	1666
67.89	1641
67.9	1619
67.91	1662
67.92	1609
67.93	1634
67.94	1672
67.95	1682
67.96	1630
67.97	1650
67.98	1610
67.99	1637
68.0	1645
68.01	1665
68.02	1680
68.03	1670
68.04	1678
68.05	1649
68.06	1640
68.07	1651
68.08	1632
68.09	1609
68.1	1604
68.11	1605
68.12	1627
68.13	1668
68.14	1670
68.15	1632
68.16	1635
68.17	1620
68.18	1638
68.19	1598
68.2	1616
68.21	1683
68.22	1685
68.23	1647
68.24	1697
68.25	1657
68.26	1652
68.27	1645
68.28	1657
68.29	1701
68.3	1705
68.31	1695
68.32	1643
68.33	1657
68.34	1686
68.35	1662
68.36	1622
68.37	1652
68.38	1618
68.39	1690
68.4	1602
68.41	1607
68.42	1688
68.43	1648
68.44	1657
68.45	1638
68.46	1655
68.47	1610
68.48	1647
68.49	1622
68.5	1626
68.51	1644
68.52	1610
68.53	1606
68.54	1630
68.55	1667
68.56	1611
68.57	1651
68.58	1646
68.59	1661
68.6	1641
68.61	1598
68.62	1601
68.63	1659
68.64	1652
68.65	1635
68.66	1598
68.67	1606
68.68	1643
68.69	1677
68.7	1693
68.71	1698
68.72	1660
68.73	1657
68.74	1689
68.75	1674
68.76	1631
68.77	1694
68.78	1657
68.79	1633
68.8	1708
68.81	1705
68.82	1729
68.83	1733
68.84	1752
68.85	1761
68.86	1805
68.87	1767
68.88	1735
68.89	1683
68.9	1717
68.91	1710
68.92	1704
68.93	1702
68.94	1720
68.95	1713
68.96	1674
68.97	1679
68.98	1671
68.99	1648
69.0	1646
69.01	1689
69.02	1710
69.03	1737
69.04	1697
69.05	1683
69.06	1643
69.07	1690
69.08	1640
69.09	1686
69.1	1654
69.11	1677
69.12	1672
69.13	1643
69.14	1619
69.15	1632
69.16	1666
69.17	1705
69.18	1673
69.19	1676
69.2	1652
69.21	1701
69.22	1669
69.23	1689
69.24	1691
69.25	1626
69.26	1642
69.27	1675
69.28	1683
69.29	1648
69.3	1680
69.31	1662
69.32	1635
69.33	1623
69.34	1640
69.35	1679
69.36	1691
69.37	1675
69.38	1652
69.39	1681
69.4	1656
69.41	1658
69.42	1651
69.43	1657
69.44	1633
69.45	1654
69.46	1625
69.47	1616
69.48	1692
69.49	1697
69.5	1737
69.51	1680
69.52	1625
69.53	1644
69.54	1671
69.55	1681
69.56	1733
69.57	1692
69.58	1674
69.59	1671
69.6	1683
69.61	1722
69.62	1681
69.63	1654
69.64	1702
69.65	1757
69.66	1759
69.67	1766
69.68	1771
69.69	1774
69.7	1734
69.71	1750
69.72	1772
69.73	1798
69.74	1811
69.75	1776
69.76	1732
69.77	1716
69.78	1717
69.79	1695
69.8	1722
69.81	1678
69.82	1627
69.83	1736
69.84	1708
69.85	1646
69.86	1690
69.87	1723
69.88	1690
69.89	1728
69.9	1732
69.91	1713
69.92	1719
69.93	1697
69.94	1689
69.95	1700
69.96	1718
69.97	1718
69.98	1698
69.99	1681
70.0	1700
70.01	1694
70.02	1686
70.03	1720
70.04	1748
70.05	1769
70.06	1738
70.07	1716
70.08	1699
70.09	1768
70.1	1793
70.11	1726
70.12	1721
70.13	1769
70.14	1803
70.15	1750
70.16	1753
70.17	1748
70.18	1767
70.19	1705
70.2	1701
70.21	1709
70.22	1701
70.23	1713
70.24	1703
70.25	1726
70.26	1725
70.27	1713
70.28	1698
70.29	1716
70.3	1725
70.31	1708
70.32	1681
70.33	1670
70.34	1684
70.35	1662
70.36	1705
70.37	1664
70.38	1645
70.39	1698
70.4	1712
70.41	1712
70.42	1697
70.43	1679
70.44	1675
70.45	1694
70.46	1650
70.47	1597
70.48	1618
70.49	1676
70.5	1688
70.51	1599
70.52	1639
70.53	1638
70.54	1648
70.55	1690
70.56	1636
70.57	1605
70.58	1583
70.59	1598
70.6	1629
70.61	1640
70.62	1647
70.63	1576
70.64	1585
70.65	1649
70.66	1664
70.67	1623
70.68	1653
70.69	1681
70.7	1656
70.71	1627
70.72	1662
70.73	1673
70.74	1694
70.75	1609
70.76	1640
70.77	1618
70.78	1607
70.79	1596
70.8	1627
70.81	1686
70.82	1683
70.83	1658
70.84	1658
70.85	1643
70.86	1616
70.87	1620
70.88	1652
70.89	1602
70.9	1651
70.91	1644
70.92	1616
70.93	1607
70.94	1623
70.95	1595
70.96	1591
70.97	1625
70.98	1624
70.99	1601
71.0	1584
71.01	1595
71.02	1551
71.03	1579
71.04	1645
71.05	1636
71.06	1626
71.07	1634
71.08	1673
71.09	1695
71.1	1679
71.11	1632
71.12	1622
71.13	1594
71.14	1656
71.15	1665
71.16	1663
71.17	1650
71.18	1596
71.19	1625
71.2	1628
71.21	1682
71.22	1656
71.23	1624
71.24	1616
71.25	1620
71.26	1634
71.27	1620
71.28	1622
71.29	1640
71.3	1631
71.31	1623
71.32	1639
71.33	1575
71.34	1624
71.35	1706
71.36	1615
71.37	1589
71.38	1636
71.39	1641
71.4	1643
71.41	1611
71.42	1575
71.43	1655
71.44	1672
71.45	1583
71.46	1633
71.47	1665
71.48	1625
71.49	1678
71.5	1683
71.51	1651
71.52	1654
71.53	1663
71.54	1616
71.55	1640
71.56	1685
71.57	1673
71.58	1704
71.59	1672
71.6	1647
71.61	1660
71.62	1674
71.63	1674
71.64	1670
71.65	1634
71.66	1616
71.67	1618
71.68	1636
71.69	1657
71.7	1671
71.71	1661
71.72	1653
71.73	1631
71.74	1656
71.75	1676
71.76	1635
71.77	1654
71.78	1603
71.79	1575
71.8	1637
71.81	1638
71.82	1681
71.83	1672
71.84	1669
71.85	1674
71.86	1596
71.87	1595
71.88	1624
71.89	1631
71.9	1648
71.91	1674
71.92	1700
71.93	1724
71.94	1673
71.95	1678
71.96	1653
71.97	1622
71.98	1664
71.99	1666
72.0	1607
72.01	1671
72.02	1689
72.03	1653
72.04	1672
72.05	1654
72.06	1674
72.07	1679
72.08	1731
72.09	1687
72.1	1695
72.11	1692
72.12	1695
72.13	1717
72.14	1754
72.15	1774
72.16	1736
72.17	1688
72.18	1736
72.19	1729
72.2	1741
72.21	1785
72.22	1792
72.23	1791
72.24	1742
72.25	1744
72.26	1788
72.27	1816
72.28	1813
72.29	1834
72.3	1842
72.31	1809
72.32	1774
72.33	1835
72.34	1873
72.35	1853
72.36	1825
72.37	1797
72.38	1831
72.39	1815
72.4	1775
72.41	1765
72.42	1759
72.43	1809
72.44	1773
72.45	1760
72.46	1805
72.47	1806
72.48	1889
72.49	1834
72.5	1800
72.51	1786
72.52	1805
72.53	1823
72.54	1827
72.55	1787
72.56	1843
72.57	1831
72.58	1765
72.59	1754
72.6	1714
72.61	1719
72.62	1776
72.63	1764
72.64	1735
72.65	1718
72.66	1751
72.67	1725
72.68	1731
72.69	1710
72.7	1683
72.71	1686
72.72	1697
72.73	1698
72.74	1731
72.75	1719
72.76	1693
72.77	1712
72.78	1715
72.79	1710
72.8	1697
72.81	1681
72.82	1650
72.83	1645
72.84	1691
72.85	1687
72.86	1688
72.87	1676
72.88	1675
72.89	1664
72.9	1669
72.91	1677
72.92	1713
72.93	1637
72.94	1633
72.95	1655
72.96	1636
72.97	1661
72.98	1657
72.99	1626
73.0	1602
73.01	1595
73.02	1623
73.03	1648
73.04	1599
73.05	1582
73.06	1607
73.07	1608
73.08	1632
73.09	1641
73.1	1653
73.11	1599
73.12	1609
73.13	1581
73.14	1588
73.15	1624
73.16	1627
73.17	1614
73.18	1620
73.19	1613
73.2	1581
73.21	1596
73.22	1622
73.23	1652
73.24	1627
73.25	1595
73.26	1626
73.27	1657
73.28	1600
73.29	1582
73.3	1584
73.31	1607
73.32	1638
73.33	1656
73.34	1601
73.35	1616
73.36	1597
73.37	1594
73.38	1604
73.39	1601
73.4	1609
73.41	1627
73.42	1664
73.43	1597
73.44	1639
73.45	1670
73.46	1638
73.47	1567
73.48	1634
73.49	1692
73.5	1654
73.51	1631
73.52	1600
73.53	1572
73.54	1610
73.55	1618
73.56	1584
73.57	1584
73.58	1611
73.59	1560
73.6	1562
73.61	1627
73.62	1644
73.63	1616
73.64	1609
73.65	1653
73.66	1657
73.67	1644
73.68	1592
73.69	1594
73.7	1578
73.71	1587
73.72	1603
73.73	1631
73.74	1636
73.75	1607
73.76	1629
73.77	1605
73.78	1637
73.79	1629
73.8	1630
73.81	1639
73.82	1623
73.83	1639
73.84	1648
73.85	1641
73.86	1606
73.87	1643
73.88	1631
73.89	1594
73.9	1614
73.91	1606
73.92	1591
73.93	1605
73.94	1663
73.95	1631
73.96	1638
73.97	1629
73.98	1617
73.99	1643
74.0	1686
74.01	1656
74.02	1620
74.03	1581
74.04	1603
74.05	1656
74.06	1659
74.07	1627
74.08	1643
74.09	1651
74.1	1632
74.11	1626
74.12	1633
74.13	1613
74.14	1597
74.15	1617
74.16	1623
74.17	1614
74.18	1599
74.19	1637
74.2	1597
74.21	1587
74.22	1603
74.23	1609
74.24	1649
74.25	1684
74.26	1624
74.27	1636
74.28	1621
74.29	1689
74.3	1680
74.31	1656
74.32	1588
74.33	1644
74.34	1664
74.35	1619
74.36	1571
74.37	1592
74.38	1576
74.39	1655
74.4	1668
74.41	1636
74.42	1593
74.43	1599
74.44	1602
74.45	1615
74.46	1624
74.47	1613
74.48	1638
74.49	1628
74.5	1555
74.51	1625
74.52	1621
74.53	1640
74.54	1612
74.55	1594
74.56	1646
74.57	1604
74.58	1613
74.59	1602
74.6	1624
74.61	1601
74.62	1639
74.63	1587
74.64	1562
74.65	1605
74.66	1615
74.67	1622
74.68	1611
74.69	1625
74.7	1641
74.71	1650
74.72	1634
74.73	1660
74.74	1611
74.75	1592
74.76	1646
74.77	1577
74.78	1557
74.79	1628
74.8	1688
74.81	1589
74.82	1577
74.83	1597
74.84	1585
74.85	1622
74.86	1624
74.87	1627
74.88	1656
74.89	1675
74.9	1609
74.91	1560
74.92	1586
74.93	1627
74.94	1605
74.95	1604
74.96	1584
74.97	1585
74.98	1644
74.99	1627
75.0	1585
75.01	1620
75.02	1654
75.03	1615
75.04	1617
75.05	1656
75.06	1621
75.07	1613
75.08	1608
75.09	1618
75.1	1635
75.11	1618
75.12	1635
75.13	1657
75.14	1672
75.15	1698
75.16	1659
75.17	1600
75.18	1622
75.19	1690
75.2	1661
75.21	1604
75.22	1661
75.23	1655
75.24	1626
75.25	1605
75.26	1630
75.27	1612
75.28	1614
75.29	1567
75.3	1609
75.31	1664
75.32	1682
75.33	1664
75.34	1690
75.35	1617
75.36	1613
75.37	1666
75.38	1681
75.39	1688
75.4	1682
75.41	1627
75.42	1626
75.43	1664
75.44	1712
75.45	1746
75.46	1741
75.47	1768
75.48	1780
75.49	1775
75.5	1811
75.51	1817
75.52	1834
75.53	1857
75.54	1863
75.55	1917
75.56	1951
75.57	1976
75.58	1995
75.59	2017
75.6	2046
75.61	1999
75.62	1993
75.63	1979
75.64	1962
75.65	1990
75.66	1922
75.67	1925
75.68	1895
75.69	1926
75.7	1902
75.71	1871
75.72	1863
75.73	1860
75.74	1866
75.75	1817
75.76	1822
75.77	1862
75.78	1839
75.79	1850
75.8	1845
75.81	1832
75.82	1810
75.83	1827
75.84	1862
75.85	1802
75.86	1830
75.87	1827
75.88	1799
75.89	1776
75.9	1780
75.91	1741
75.92	1719
75.93	1717
75.94	1712
75.95	1723
75.96	1676
75.97	1661
75.98	1677
75.99	1694
76.0	1668
76.01	1691
76.02	1737
76.03	1698
76.04	1619
76.05	1674
76.06	1669
76.07	1671
76.08	1646
76.09	1612
76.1	1661
76.11	1636
76.12	1619
76.13	1584
76.14	1636
76.15	1670
76.16	1643
76.17	1665
76.18	1672
76.19	1654
76.2	1682
76.21	1669
76.22	1645
76.23	1619
76.24	1629
76.25	1627
76.26	1654
76.27	1662
76.28	1674
76.29	1693
76.3	1710
76.31	1669
76.32	1649
76.33	1694
76.34	1674
76.35	1667
76.36	1642
76.37	1652
76.38	1669
76.39	1686
76.4	1694
76.41	1738
76.42	1712
76.43	1796
76.44	1816
76.45	1783
76.46	1773
76.47	1773
76.48	1776
76.49	1787
76.5	1840
76.51	1834
76.52	1840
76.53	1834
76.54	1913
76.55	1913
76.56	1920
76.57	1966
76.58	2036
76.59	2087
76.6	2089
76.61	2099
76.62	2127
76.63	2055
76.64	2051
76.65	2018
76.66	2069
76.67	2068
76.68	2021
76.69	1977
76.7	1992
76.71	1963
76.72	1984
76.73	1982
76.74	1932
76.75	1939
76.76	1913
76.77	1922
76.78	1925
76.79	1978
76.8	2011
76.81	1909
76.82	1877
76.83	1881
76.84	1927
76.85	1912
76.86	1940
76.87	1926
76.88	1924
76.89	1893
76.9	1885
76.91	1864
76.92	1831
76.93	1834
76.94	1851
76.95	1833
76.96	1786
76.97	1796
76.98	1799
76.99	1788
77.0	1759
77.01	1698
77.02	1722
77.03	1757
77.04	1713
77.05	1720
77.06	1711
77.07	1732
77.08	1733
77.09	1723
77.1	1716
77.11	1681
77.12	1654
77.13	1690
77.14	1679
77.15	1670
77.16	1688
77.17	1672
77.18	1676
77.19	1693
77.2	1689
77.21	1661
77.22	1672
77.23	1691
77.24	1688
77.25	1678
77.26	1665
77.27	1649
77.28	1672
77.29	1721
77.3	1663
77.31	1698
77.32	1699
77.33	1718
77.34	1766
77.35	1783
77.36	1733
77.37	1762
77.38	1734
77.39	1788
77.4	1785
77.41	1804
77.42	1807
77.43	1838
77.44	1869
77.45	1831
77.46	1786
77.47	1800
77.48	1819
77.49	1740
77.5	1719
77.51	1713
77.52	1677
77.53	1731
77.54	1771
77.55	1753
77.56	1710
77.57	1746
77.58	1744
77.59	1723
77.6	1761
77.61	1745
77.62	1672
77.63	1663
77.64	1715
77.65	1727
77.66	1728
77.67	1721
77.68	1679
77.69	1709
77.7	1698
77.71	1736
77.72	1719
77.73	1667
77.74	1661
77.75	1736
77.76	1701
77.77	1685
77.78	1658
77.79	1658
77.8	1650
77.81	1645
77.82	1663
77.83	1693
77.84	1688
77.85	1649
77.86	1630
77.87	1582
77.88	1593
77.89	1654
77.9	1647
77.91	1673
77.92	1692
77.93	1660
77.94	1672
77.95	1684
77.96	1641
77.97	1675
77.98	1632
77.99	1648
78.0	1671
78.01	1662
78.02	1624
78.03	1603
78.04	1574
78.05	1613
78.06	1593
78.07	1641
78.08	1706
78.09	1692
78.1	1646
78.11	1569
78.12	1601
78.13	1620
78.14	1608
78.15	1618
78.16	1631
78.17	1654
78.18	1640
78.19	1670
78.2	1688
78.21	1680
78.22	1635
78.23	1679
78.24	1653
78.25	1638
78.26	1645
78.27	1665
78.28	1719
78.29	1716
78.3	1737
78.31	1713
78.32	1681
78.33	1647
78.34	1724
78.35	1728
78.36	1740
78.37	1753
78.38	1717
78.39	1799
78.4	1805
78.41	1813
78.42	1803
78.43	1826
78.44	1809
78.45	1879
78.46	1934
78.47	2034
78.48	2093
78.49	2055
78.5	2059
78.51	2161
78.52	2182
78.53	2198
78.54	2209
78.55	2208
78.56	2175
78.57	2164
78.58	2132
78.59	2234
78.6	2195
78.61	2195
78.62	2148
78.63	2127
78.64	2134
78.65	2172
78.66	2208
78.67	2231
78.68	2222
78.69	2259
78.7	2330
78.71	2388
78.72	2398
78.73	2466
78.74	2519
78.75	2502
78.76	2513
78.77	2510
78.78	2453
78.79	2391
78.8	2356
78.81	2325
78.82	2338
78.83	2241
78.84	2159
78.85	2106
78.86	2075
78.87	2036
78.88	2057
78.89	2004
78.9	1978
78.91	2002
78.92	1976
78.93	1960
78.94	1948
78.95	1973
78.96	2038
78.97	2028
78.98	1987
78.99	2001
79.0	1941
79.01	2008
79.02	1994
79.03	1953
79.04	1907
79.05	1845
79.06	1947
79.07	1898
79.08	1789
79.09	1802
79.1	1794
79.11	1790
79.12	1774
79.13	1768
79.14	1762
79.15	1736
79.16	1694
79.17	1699
79.18	1691
79.19	1705
79.2	1685
79.21	1638
79.22	1707
79.23	1736
79.24	1691
79.25	1663
79.26	1724
79.27	1701
79.28	1674
79.29	1695
79.3	1704
79.31	1679
79.32	1644
79.33	1665
79.34	1653
79.35	1648
79.36	1683
79.37	1687
79.38	1622
79.39	1653
79.4	1670
79.41	1674
79.42	1649
79.43	1603
79.44	1630
79.45	1627
79.46	1625
79.47	1569
79.48	1579
79.49	1596
79.5	1619
79.51	1660
79.52	1686
79.53	1681
79.54	1646
79.55	1632
79.56	1657
79.57	1616
79.58	1610
79.59	1658
79.6	1683
79.61	1642
79.62	1628
79.63	1641
79.64	1635
79.65	1660
79.66	1632
79.67	1575
79.68	1588
79.69	1651
79.7	1658
79.71	1642
79.72	1631
79.73	1665
79.74	1669
79.75	1636
79.76	1662
79.77	1649
79.78	1681
79.79	1600
79.8	1607
79.81	1698
79.82	1652
79.83	1653
79.84	1640
79.85	1635
79.86	1672
79.87	1650
79.88	1664
79.89	1662
79.9	1698
79.91	1701
79.92	1714
79.93	1705
79.94	1701
79.95	1715
79.96	1727
79.97	1725
79.98	1694
79.99	1708
80.0	1699
80.01	1732
80.02	1810
80.03	1773
80.04	1783
80.05	1773
80.06	1785
80.07	1851
80.08	1844
80.09	1879
80.1	1902
80.11	1906
80.12	1962
80.13	1983
80.14	2025
80.15	2042
80.16	2060
80.17	2079
80.18	2097
80.19	2097
80.2	2072
80.21	2013
80.22	1923
80.23	1943
80.24	1921
80.25	1895
80.26	1903
80.27	1936
80.28	1920
80.29	1894
80.3	1897
80.31	1870
80.32	1827
80.33	1832
80.34	1873
80.35	1858
80.36	1877
80.37	1901
80.38	1909
80.39	1941
80.4	1949
80.41	1943
80.42	1925
80.43	1842
80.44	1819
80.45	1859
80.46	1835
80.47	1832
80.48	1813
80.49	1797
80.5	1761
80.51	1829
80.52	1811
80.53	1787
80.54	1796
80.55	1807
80.56	1873
80.57	1866
80.58	1872
80.59	1892
80.6	1896
80.61	1926
80.62	1975
80.63	2021
80.64	2058
80.65	2098
80.66	2239
80.67	2225
80.68	2329
80.69	2387
80.7	2425
80.71	2410
80.72	2459
80.73	2507
80.74	2416
80.75	2357
80.76	2312
80.77	2257
80.78	2215
80.79	2169
80.8	2121
80.81	2063
80.82	2008
80.83	1970
80.84	1993
80.85	1984
80.86	1962
80.87	1992
80.88	1968
80.89	1977
80.9	1931
80.91	1944
80.92	2040
80.93	2124
80.94	2090
80.95	2061
80.96	2042
80.97	2048
80.98	2054
80.99	2041
81.0	2027
81.01	1985
81.02	1915
81.03	1877
81.04	1874
81.05	1842
81.06	1815
81.07	1791
81.08	1751
81.09	1730
81.1	1748
81.11	1712
81.12	1695
81.13	1703
81.14	1738
81.15	1706
81.16	1683
81.17	1658
81.18	1699
81.19	1723
81.2	1705
81.21	1708
81.22	1685
81.23	1686
81.24	1673
81.25	1646
81.26	1665
81.27	1642
81.28	1632
81.29	1682
81.3	1690
81.31	1700
81.32	1700
81.33	1671
81.34	1695
81.35	1721
81.36	1683
81.37	1616
81.38	1666
81.39	1668
81.4	1648
81.41	1643
81.42	1636
81.43	1620
81.44	1625
81.45	1679
81.46	1653
81.47	1645
81.48	1660
81.49	1627
81.5	1621
81.51	1622
81.52	1574
81.53	1578
81.54	1618
81.55	1608
81.56	1647
81.57	1651
81.58	1625
81.59	1663
81.6	1652
81.61	1629
81.62	1567
81.63	1612
81.64	1652
81.65	1630
81.66	1614
81.67	1641
81.68	1620
81.69	1615
81.7	1644
81.71	1641
81.72	1651
81.73	1614
81.74	1590
81.75	1569
81.76	1597
81.77	1633
81.78	1627
81.79	1601
81.8	1607
81.81	1608
81.82	1631
81.83	1645
81.84	1622
81.85	1596
81.86	1602
81.87	1641
81.88	1635
81.89	1614
81.9	1560
81.91	1557
81.92	1561
81.93	1629
81.94	1549
81.95	1533
81.96	1622
81.97	1605
81.98	1599
81.99	1595
82.0	1590
82.01	1599
82.02	1637
82.03	1613
82.04	1613
82.05	1648
82.06	1640
82.07	1619
82.08	1599
82.09	1613
82.1	1660
82.11	1597
82.12	1603
82.13	1615
82.14	1641
82.15	1623
82.16	1648
82.17	1668
82.18	1664
82.19	1654
82.2	1698
82.21	1663
82.22	1665
82.23	1615
82.24	1629
82.25	1659
82.26	1665
82.27	1623
82.28	1652
82.29	1653
82.3	1635
82.31	1672
82.32	1663
82.33	1648
82.34	1632
82.35	1667
82.36	1663
82.37	1626
82.38	1630
82.39	1696
82.4	1678
82.41	1699
82.42	1698
82.43	1655
82.44	1687
82.45	1688
82.46	1664
82.47	1648
82.48	1637
82.49	1661
82.5	1675
82.51	1678
82.52	1674
82.53	1651
82.54	1634
82.55	1667
82.56	1675
82.57	1643
82.58	1622
82.59	1647
82.6	1635
82.61	1605
82.62	1569
82.63	1663
82.64	1685
82.65	1638
82.66	1627
82.67	1640
82.68	1647
82.69	1653
82.7	1699
82.71	1717
82.72	1702
82.73	1695
82.74	1691
82.75	1669
82.76	1674
82.77	1630
82.78	1651
82.79	1660
82.8	1658
82.81	1641
82.82	1688
82.83	1747
82.84	1768
82.85	1702
82.86	1726
82.87	1745
82.88	1774
82.89	1781
82.9	1790
82.91	1775
82.92	1848
82.93	1906
82.94	1916
82.95	1963
82.96	2025
82.97	2067
82.98	2097
82.99	2135
83.0	2098
83.01	2084
83.02	2074
83.03	2091
83.04	2091
83.05	2056
83.06	2037
83.07	1983
83.08	1940
83.09	1934
83.1	1917
83.11	1881
83.12	1841
83.13	1793
83.14	1806
83.15	1848
83.16	1828
83.17	1824
83.18	1838
83.19	1917
83.2	1958
83.21	1908
83.22	1880
83.23	1929
83.24	1898
83.25	1945
83.26	1914
83.27	1899
83.28	1947
83.29	1911
83.3	1925
83.31	1947
83.32	1868
83.33	1839
83.34	1831
83.35	1827
83.36	1766
83.37	1743
83.38	1719
83.39	1754
83.4	1769
83.41	1728
83.42	1726
83.43	1711
83.44	1701
83.45	1742
83.46	1676
83.47	1710
83.48	1724
83.49	1708
83.5	1734
83.51	1736
83.52	1756
83.53	1732
83.54	1754
83.55	1757
83.56	1729
83.57	1771
83.58	1795
83.59	1772
83.6	1745
83.61	1771
83.62	1828
83.63	1845
83.64	1901
83.65	1933
83.66	1924
83.67	1907
83.68	1952
83.69	2022
83.7	2047
83.71	2023
83.72	2026
83.73	2052
83.74	2084
83.75	2076
83.76	2035
83.77	2041
83.78	2062
83.79	2086
83.8	2025
83.81	1937
83.82	1951
83.83	1990
83.84	1960
83.85	1921
83.86	1906
83.87	1904
83.88	1883
83.89	1913
83.9	1907
83.91	1924
83.92	1913
83.93	1921
83.94	1887
83.95	1906
83.96	1953
83.97	1980
83.98	1935
83.99	1885
84.0	1890
84.01	1923
84.02	1955
84.03	1917
84.04	1890
84.05	1852
84.06	1899
84.07	1898
84.08	1848
84.09	1843
84.1	1779
84.11	1808
84.12	1780
84.13	1761
84.14	1770
84.15	1758
84.16	1769
84.17	1752
84.18	1668
84.19	1687
84.2	1745
84.21	1775
84.22	1762
84.23	1759
84.24	1721
84.25	1716
84.26	1643
84.27	1630
84.28	1714
84.29	1717
84.3	1705
84.31	1686
84.32	1675
84.33	1699
84.34	1722
84.35	1671
84.36	1661
84.37	1701
84.38	1664
84.39	1655
84.4	1671
84.41	1698
84.42	1738
84.43	1720
84.44	1683
84.45	1720
84.46	1740
84.47	1737
84.48	1747
84.49	1749
84.5	1728
84.51	1718
84.52	1703
84.53	1690
84.54	1742
84.55	1794
84.56	1760
84.57	1697
84.58	1738
84.59	1749
84.6	1765
84.61	1743
84.62	1669
84.63	1664
84.64	1678
84.65	1697
84.66	1709
84.67	1707
84.68	1708
84.69	1709
84.7	1726
84.71	1671
84.72	1679
84.73	1661
84.74	1723
84.75	1742
84.76	1727
84.77	1679
84.78	1647
84.79	1644
84.8	1675
84.81	1655
84.82	1673
84.83	1693
84.84	1656
84.85	1657
84.86	1667
84.87	1671
84.88	1685
84.89	1669
84.9	1620
84.91	1627
84.92	1696
84.93	1643
84.94	1654
84.95	1660
84.96	1626
84.97	1647
84.98	1619
84.99	1600
85.0	1647
85.01	1621
85.02	1592
85.03	1607
85.04	1647
85.05	1642
85.06	1630
85.07	1630
85.08	1610
85.09	1597
85.1	1609
85.11	1649
85.12	1648
85.13	1594
85.14	1607
85.15	1612
85.16	1580
85.17	1590
85.18	1609
85.19	1622
85.2	1611
85.21	1617
85.22	1606
85.23	1609
85.24	1605
85.25	1594
85.26	1592
85.27	1635
85.28	1640
85.29	1628
85.3	1643
85.31	1642
85.32	1657
85.33	1616
85.34	1646
85.35	1686
85.36	1614
85.37	1569
85.38	1580
85.39	1601
85.4	1619
85.41	1597
85.42	1607
85.43	1585
85.44	1597
85.45	1615
85.46	1609
85.47	1566
85.48	1549
85.49	1601
85.5	1639
85.51	1583
85.52	1554
85.53	1570
85.54	1566
85.55	1593
85.56	1611
85.57	1582
85.58	1661
85.59	1585
85.6	1615
85.61	1610
85.62	1640
85.63	1629
85.64	1649
85.65	1633
85.66	1584
85.67	1589
85.68	1667
85.69	1656
85.7	1607
85.71	1619
85.72	1664
85.73	1647
85.74	1680
85.75	1662
85.76	1630
85.77	1645
85.78	1632
85.79	1632
85.8	1671
85.81	1648
85.82	1637
85.83	1663
85.84	1665
85.85	1654
85.86	1652
85.87	1647
85.88	1624
85.89	1592
85.9	1626
85.91	1618
85.92	1608
85.93	1613
85.94	1579
85.95	1572
85.96	1601
85.97	1646
85.98	1640
85.99	1648
86.0	1632
86.01	1681
86.02	1633
86.03	1613
86.04	1603
86.05	1629
86.06	1643
86.07	1619
86.08	1605
86.09	1621
86.1	1607
86.11	1587
86.12	1601
86.13	1589
86.14	1573
86.15	1599
86.16	1629
86.17	1627
86.18	1620
86.19	1602
86.2	1581
86.21	1573
86.22	1602
86.23	1655
86.24	1625
86.25	1580
86.26	1579
86.27	1585
86.28	1610
86.29	1630
86.3	1610
86.31	1582
86.32	1599
86.33	1636
86.34	1660
86.35	1618
86.36	1616
86.37	1603
86.38	1611
86.39	1596
86.4	1617
86.41	1570
86.42	1586
86.43	1603
86.44	1635
86.45	1636
86.46	1626
86.47	1606
86.48	1601
86.49	1632
86.5	1657
86.51	1631
86.52	1589
86.53	1569
86.54	1632
86.55	1640
86.56	1623
86.57	1614
86.58	1635
86.59	1624
86.6	1621
86.61	1637
86.62	1643
86.63	1668
86.64	1623
86.65	1597
86.66	1628
86.67	1664
86.68	1658
86.69	1667
86.7	1632
86.71	1578
86.72	1587
86.73	1639
86.74	1635
86.75	1577
86.76	1601
86.77	1632
86.78	1611
86.79	1603
86.8	1602
86.81	1628
86.82	1644
86.83	1636
86.84	1639
86.85	1655
86.86	1644
86.87	1650
86.88	1636
86.89	1634
86.9	1667
86.91	1647
86.92	1631
86.93	1628
86.94	1598
86.95	1608
86.96	1656
86.97	1672
86.98	1626
86.99	1586
87.0	1605
87.01	1644
87.02	1622
87.03	1623
87.04	1623
87.05	1616
87.06	1624
87.07	1627
87.08	1628
87.09	1657
87.1	1637
87.11	1641
87.12	1674
87.13	1680
87.14	1627
87.15	1625
87.16	1624
87.17	1643
87.18	1663
87.19	1652
87.2	1640
87.21	1674
87.22	1650
87.23	1644
87.24	1647
87.25	1671
87.26	1663
87.27	1674
87.28	1693
87.29	1697
87.3	1640
87.31	1614
87.32	1661
87.33	1688
87.34	1679
87.35	1694
87.36	1706
87.37	1699
87.38	1696
87.39	1699
87.4	1722
87.41	1701
87.42	1693
87.43	1693
87.44	1662
87.45	1674
87.46	1690
87.47	1679
87.48	1688
87.49	1676
87.5	1663
87.51	1643
87.52	1628
87.53	1635
87.54	1654
87.55	1677
87.56	1660
87.57	1615
87.58	1647
87.59	1670
87.6	1656
87.61	1627
87.62	1627
87.63	1646
87.64	1663
87.65	1631
87.66	1593
87.67	1652
87.68	1679
87.69	1670
87.7	1680
87.71	1619
87.72	1667
87.73	1682
87.74	1627
87.75	1599
87.76	1577
87.77	1594
87.78	1608
87.79	1595
87.8	1610
87.81	1645
87.82	1669
87.83	1654
87.84	1622
87.85	1593
87.86	1593
87.87	1603
87.88	1606
87.89	1593
87.9	1590
87.91	1593
87.92	1595
87.93	1624
87.94	1647
87.95	1622
87.96	1614
87.97	1651
87.98	1656
87.99	1625
88.0	1611
88.01	1615
88.02	1596
88.03	1602
88.04	1622
88.05	1612
88.06	1572
88.07	1582
88.08	1597
88.09	1563
88.1	1548
88.11	1576
88.12	1608
88.13	1595
88.14	1584
88.15	1623
88.16	1637
88.17	1633
88.18	1616
88.19	1573
88.2	1585
88.21	1597
88.22	1591
88.23	1598
88.24	1603
88.25	1616
88.26	1632
88.27	1623
88.28	1634
88.29	1620
88.3	1629
88.31	1602
88.32	1597
88.33	1593
88.34	1555
88.35	1587
88.36	1627
88.37	1612
88.38	1621
88.39	1605
88.4	1626
88.41	1636
88.42	1580
88.43	1582
88.44	1617
88.45	1611
88.46	1581
88.47	1598
88.48	1606
88.49	1621
88.5	1615
88.51	1615
88.52	1624
88.53	1638
88.54	1645
88.55	1634
88.56	1580
88.57	1589
88.58	1608
88.59	1618
88.6	1622
88.61	1627
88.62	1628
88.63	1624
88.64	1631
88.65	1628
88.66	1613
88.67	1613
88.68	1612
88.69	1615
88.7	1658
88.71	1646
88.72	1598
88.73	1603
88.74	1624
88.75	1606
88.76	1579
88.77	1612
88.78	1659
88.79	1644
88.8	1616
88.81	1625
88.82	1676
88.83	1703
88.84	1679
88.85	1639
88.86	1627
88.87	1648
88.88	1659
88.89	1648
88.9	1655
88.91	1690
88.92	1671
88.93	1642
88.94	1639
88.95	1663
88.96	1662
88.97	1636
88.98	1663
88.99	1653
89.0	1631
89.01	1645
89.02	1645
89.03	1652
89.04	1700
89.05	1703
89.06	1699
89.07	1704
89.08	1721
89.09	1721
89.1	1721
89.11	1706
89.12	1685
89.13	1644
89.14	1632
89.15	1649
89.16	1664
89.17	1684
89.18	1680
89.19	1705
89.2	1693
89.21	1633
89.22	1620
89.23	1666
89.24	1704
89.25	1700
89.26	1677
89.27	1657
89.28	1662
89.29	1655
89.3	1668
89.31	1680
89.32	1664
89.33	1643
89.34	1637
89.35	1665
89.36	1689
89.37	1672
89.38	1649
89.39	1660
89.4	1647
89.41	1660
89.42	1636
89.43	1631
89.44	1640
89.45	1625
89.46	1623
89.47	1636
89.48	1640
89.49	1639
89.5	1660
89.51	1680
89.52	1651
89.53	1617
89.54	1604
89.55	1608
89.56	1616
89.57	1606
89.58	1588
89.59	1621
89.6	1625
89.61	1596
89.62	1598
89.63	1602
89.64	1608
89.65	1592
89.66	1610
89.67	1628
89.68	1579
89.69	1552
89.7	1596
89.71	1618
89.72	1625
89.73	1646
89.74	1630
89.75	1637
89.76	1641
89.77	1617
89.78	1615
89.79	1632
89.8	1632
89.81	1617
89.82	1622
89.83	1631
89.84	1610
89.85	1601
89.86	1607
89.87	1602
89.88	1581
89.89	1574
89.9	1600
89.91	1615
89.92	1603
89.93	1615
89.94	1625
89.95	1609
89.96	1606
89.97	1595
89.98	1575
89.99	1542
90.0	1545
90.01	1558
90.02	1596
90.03	1620
90.04	1619
90.05	1612
90.06	1604
90.07	1571
90.08	1550
90.09	1565
90.1	1569
90.11	1572
90.12	1567
90.13	1538
90.14	1556
90.15	1615
90.16	1625
90.17	1585
90.18	1551
90.19	1583
90.2	1612
90.21	1585
90.22	1557
90.23	1570
90.24	1592
90.25	1597
90.26	1607
90.27	1632
90.28	1610
90.29	1580
90.3	1564
90.31	1576
90.32	1588
90.33	1575
90.34	1566
90.35	1562
90.36	1548
90.37	1537
90.38	1541
90.39	1553
90.4	1572
90.41	1578
90.42	1578
90.43	1630
90.44	1622
90.45	1592
90.46	1591
90.47	1591
90.48	1579
90.49	1568
90.5	1566
90.51	1559
90.52	1598
90.53	1656
90.54	1660
90.55	1608
90.56	1561
90.57	1539
90.58	1563
90.59	1621
90.6	1660
90.61	1669
90.62	1631
90.63	1578
90.64	1557
90.65	1576
90.66	1577
90.67	1569
90.68	1571
90.69	1579
90.7	1599
90.71	1612
90.72	1605
90.73	1590
90.74	1590
90.75	1580
90.76	1578
90.77	1596
90.78	1610
90.79	1629
90.8	1633
90.81	1623
90.82	1601
90.83	1589
90.84	1596
90.85	1594
90.86	1585
90.87	1604
90.88	1617
90.89	1613
90.9	1600
90.91	1592
90.92	1610
90.93	1611
90.94	1588
90.95	1589
90.96	1599
90.97	1608
90.98	1602
90.99	1558
91.0	1606
91.01	1650
91.02	1589
91.03	1597
91.04	1640
91.05	1623
91.06	1603
91.07	1596
91.08	1588
91.09	1596
91.1	1631
91.11	1610
91.12	1577
91.13	1589
91.14	1571
91.15	1559
91.16	1573
91.17	1582
91.18	1579
91.19	1555
91.2	1577
91.21	1622
91.22	1619
91.23	1629
91.24	1669
91.25	1671
91.26	1637
91.27	1614
91.28	1611
91.29	1589
91.3	1576
91.31	1603
91.32	1622
91.33	1621
91.34	1613
91.35	1594
91.36	1608
91.37	1643
91.38	1646
91.39	1626
91.4	1611
91.41	1615
91.42	1631
91.43	1618
91.44	1607
91.45	1655
91.46	1721
91.47	1738
91.48	1711
91.49	1675
91.5	1648
91.51	1635
91.52	1659
91.53	1707
91.54	1720
91.55	1701
91.56	1695
91.57	1728
91.58	1729
91.59	1706
91.6	1719
91.61	1732
91.62	1746
91.63	1787
91.64	1802
91.65	1817
91.66	1833
91.67	1840
91.68	1860
91.69	1889
91.7	1912
91.71	1924
91.72	1975
91.73	2011
91.74	2035
91.75	2056
91.76	2042
91.77	2042
91.78	2047
91.79	2015
91.8	2002
91.81	2000
91.82	1973
91.83	1937
91.84	1920
91.85	1910
91.86	1900
91.87	1892
91.88	1883
91.89	1881
91.9	1886
91.91	1873
91.92	1848
91.93	1834
91.94	1821
91.95	1828
91.96	1861
91.97	1869
91.98	1836
91.99	1848
92.0	1871
92.01	1869
92.02	1874
92.03	1881
92.04	1858
92.05	1845
92.06	1877
92.07	1889
92.08	1881
92.09	1870
92.1	1830
92.11	1799
92.12	1778
92.13	1751
92.14	1748
92.15	1767
92.16	1753
92.17	1715
92.18	1724
92.19	1735
92.2	1729
92.21	1715
92.22	1699
92.23	1701
92.24	1695
92.25	1675
92.26	1661
92.27	1661
92.28	1667
92.29	1676
92.3	1700
92.31	1690
92.32	1630
92.33	1593
92.34	1605
92.35	1613
92.36	1632
92.37	1640
92.38	1637
92.39	1648
92.4	1644
92.41	1643
92.42	1662
92.43	1651
92.44	1627
92.45	1636
92.46	1657
92.47	1619
92.48	1589
92.49	1584
92.5	1579
92.51	1569
92.52	1604
92.53	1617
92.54	1591
92.55	1590
92.56	1591
92.57	1629
92.58	1649
92.59	1605
92.6	1561
92.61	1568
92.62	1622
92.63	1621
92.64	1641
92.65	1654
92.66	1637
92.67	1614
92.68	1599
92.69	1610
92.7	1619
92.71	1609
92.72	1603
92.73	1615
92.74	1639
92.75	1650
92.76	1636
92.77	1643
92.78	1658
92.79	1634
92.8	1622
92.81	1630
92.82	1638
92.83	1663
92.84	1665
92.85	1654
92.86	1614
92.87	1569
92.88	1583
92.89	1618
92.9	1595
92.91	1587
92.92	1598
92.93	1602
92.94	1601
92.95	1605
92.96	1580
92.97	1582
92.98	1582
92.99	1604
93.0	1586
93.01	1578
93.02	1587
93.03	1574
93.04	1569
93.05	1610
93.06	1624
93.07	1616
93.08	1617
93.09	1585
93.1	1579
93.11	1593
93.12	1592
93.13	1589
93.14	1585
93.15	1577
93.16	1615
93.17	1627
93.18	1589
93.19	1594
93.2	1615
93.21	1603
93.22	1577
93.23	1564
93.24	1604
93.25	1629
93.26	1634
93.27	1638
93.28	1614
93.29	1596
93.3	1623
93.31	1609
93.32	1588
93.33	1621
93.34	1624
93.35	1574
93.36	1548
93.37	1572
93.38	1591
93.39	1603
93.4	1595
93.41	1588
93.42	1594
93.43	1614
93.44	1620
93.45	1576
93.46	1587
93.47	1588
93.48	1591
93.49	1619
93.5	1615
93.51	1588
93.52	1578
93.53	1566
93.54	1556
93.55	1591
93.56	1612
93.57	1584
93.58	1578
93.59	1599
93.6	1603
93.61	1606
93.62	1603
93.63	1629
93.64	1621
93.65	1601
93.66	1602
93.67	1637
93.68	1684
93.69	1681
93.7	1631
93.71	1607
93.72	1560
93.73	1554
93.74	1580
93.75	1548
93.76	1536
93.77	1566
93.78	1581
93.79	1592
93.8	1607
93.81	1621
93.82	1629
93.83	1634
93.84	1618
93.85	1626
93.86	1583
93.87	1538
93.88	1550
93.89	1561
93.9	1550
93.91	1560
93.92	1582
93.93	1582
93.94	1605
93.95	1627
93.96	1625
93.97	1625
93.98	1600
93.99	1567
94.0	1571
94.01	1577
94.02	1552
94.03	1547
94.04	1544
94.05	1566
94.06	1599
94.07	1605
94.08	1640
94.09	1618
94.1	1579
94.11	1589
94.12	1606
94.13	1602
94.14	1578
94.15	1581
94.16	1617
94.17	1578
94.18	1562
94.19	1583
94.2	1628
94.21	1649
94.22	1630
94.23	1621
94.24	1580
94.25	1625
94.26	1625
94.27	1582
94.28	1555
94.29	1575
94.3	1593
94.31	1601
94.32	1582
94.33	1584
94.34	1589
94.35	1583
94.36	1613
94.37	1606
94.38	1575
94.39	1575
94.4	1589
94.41	1599
94.42	1584
94.43	1590
94.44	1594
94.45	1576
94.46	1561
94.47	1567
94.48	1585
94.49	1574
94.5	1592
94.51	1575
94.52	1596
94.53	1582
94.54	1551
94.55	1581
94.56	1580
94.57	1575
94.58	1579
94.59	1587
94.6	1596
94.61	1554
94.62	1540
94.63	1572
94.64	1607
94.65	1618
94.66	1563
94.67	1582
94.68	1603
94.69	1583
94.7	1586
94.71	1551
94.72	1535
94.73	1537
94.74	1553
94.75	1589
94.76	1564
94.77	1587
94.78	1597
94.79	1601
94.8	1597
94.81	1621
94.82	1634
94.83	1647
94.84	1623
94.85	1597
94.86	1600
94.87	1627
94.88	1603
94.89	1579
94.9	1594
94.91	1619
94.92	1599
94.93	1572
94.94	1564
94.95	1621
94.96	1617
94.97	1585
94.98	1612
94.99	1644
95.0	1631
95.01	1623
95.02	1641
95.03	1631
95.04	1592
95.05	1592
95.06	1597
95.07	1577
95.08	1580
95.09	1595
95.1	1604
95.11	1588
95.12	1616
95.13	1620
95.14	1599
95.15	1596
95.16	1578
95.17	1563
95.18	1598
95.19	1615
95.2	1617
95.21	1613
95.22	1597
95.23	1600
95.24	1602
95.25	1573
95.26	1584
95.27	1621
95.28	1599
95.29	1586
95.3	1571
95.31	1591
95.32	1622
95.33	1613
95.34	1625
95.35	1648
95.36	1628
95.37	1586
95.38	1601
95.39	1663
95.4	1676
95.41	1686
95.42	1654
95.43	1613
95.44	1595
95.45	1602
95.46	1612
95.47	1620
95.48	1620
95.49	1600
95.5	1602
95.51	1655
95.52	1629
95.53	1595
95.54	1646
95.55	1625
95.56	1593
95.57	1617
95.58	1613
95.59	1622
95.6	1607
95.61	1624
95.62	1644
95.63	1641
95.64	1604
95.65	1612
95.66	1637
95.67	1643
95.68	1618
95.69	1608
95.7	1623
95.71	1651
95.72	1633
95.73	1609
95.74	1593
95.75	1610
95.76	1641
95.77	1612
95.78	1596
95.79	1603
95.8	1595
95.81	1581
95.82	1577
95.83	1584
95.84	1583
95.85	1558
95.86	1557
95.87	1556
95.88	1603
95.89	1645
95.9	1624
95.91	1556
95.92	1569
95.93	1605
95.94	1585
95.95	1559
95.96	1598
95.97	1610
95.98	1601
95.99	1612
96.0	1618
96.01	1578
96.02	1611
96.03	1615
96.04	1600
96.05	1571
96.06	1539
96.07	1578
96.08	1637
96.09	1640
96.1	1619
96.11	1606
96.12	1570
96.13	1560
96.14	1598
96.15	1599
96.16	1596
96.17	1661
96.18	1641
96.19	1637
96.2	1643
96.21	1605
96.22	1629
96.23	1657
96.24	1630
96.25	1607
96.26	1617
96.27	1632
96.28	1616
96.29	1595
96.3	1604
96.31	1636
96.32	1649
96.33	1613
96.34	1601
96.35	1594
96.36	1618
96.37	1609
96.38	1614
96.39	1615
96.4	1613
96.41	1594
96.42	1581
96.43	1548
96.44	1603
96.45	1656
96.46	1670
96.47	1639
96.48	1618
96.49	1682
96.5	1662
96.51	1607
96.52	1614
96.53	1626
96.54	1675
96.55	1663
96.56	1649
96.57	1675
96.58	1651
96.59	1680
96.6	1694
96.61	1736
96.62	1768
96.63	1759
96.64	1717
96.65	1681
96.66	1693
96.67	1713
96.68	1690
96.69	1697
96.7	1746
96.71	1766
96.72	1768
96.73	1741
96.74	1730
96.75	1753
96.76	1763
96.77	1758
96.78	1748
96.79	1736
96.8	1731
96.81	1714
96.82	1736
96.83	1750
96.84	1701
96.85	1761
96.86	1752
96.87	1737
96.88	1753
96.89	1751
96.9	1771
96.91	1765
96.92	1741
96.93	1769
96.94	1765
96.95	1754
96.96	1779
96.97	1738
96.98	1692
96.99	1684
97.0	1719
97.01	1749
97.02	1697
97.03	1700
97.04	1690
97.05	1696
97.06	1731
97.07	1707
97.08	1720
97.09	1733
97.1	1705
97.11	1660
97.12	1669
97.13	1709
97.14	1718
97.15	1703
97.16	1704
97.17	1717
97.18	1696
97.19	1701
97.2	1699
97.21	1678
97.22	1664
97.23	1642
97.24	1681
97.25	1641
97.26	1663
97.27	1687
97.28	1651
97.29	1628
97.3	1640
97.31	1610
97.32	1558
97.33	1608
97.34	1633
97.35	1650
97.36	1658
97.37	1699
97.38	1668
97.39	1612
97.4	1626
97.41	1639
97.42	1623
97.43	1618
97.44	1684
97.45	1641
97.46	1620
97.47	1634
97.48	1619
97.49	1671
97.5	1652
97.51	1662
97.52	1630
97.53	1638
97.54	1630
97.55	1628
97.56	1602
97.57	1606
97.58	1568
97.59	1562
97.6	1601
97.61	1585
97.62	1608
97.63	1597
97.64	1591
97.65	1593
97.66	1629
97.67	1634
97.68	1643
97.69	1634
97.7	1632
97.71	1594
97.72	1603
97.73	1635
97.74	1612
97.75	1608
97.76	1597
97.77	1569
97.78	1591
97.79	1608
97.8	1605
97.81	1650
97.82	1635
97.83	1624
97.84	1630
97.85	1606
97.86	1589
97.87	1643
97.88	1635
97.89	1588
97.9	1623
97.91	1621
97.92	1620
97.93	1607
97.94	1597
97.95	1606
97.96	1603
97.97	1605
97.98	1595
97.99	1583
98.0	1602
98.01	1617
98.02	1623
98.03	1636
98.04	1640
98.05	1617
98.06	1593
98.07	1586
98.08	1583
98.09	1608
98.1	1609
98.11	1620
98.12	1609
98.13	1586
98.14	1550
98.15	1558
98.16	1607
98.17	1637
98.18	1611
98.19	1656
98.2	1641
98.21	1605
98.22	1597
98.23	1590
98.24	1619
98.25	1665
98.26	1602
98.27	1598
98.28	1619
98.29	1673
98.3	1606
98.31	1634
98.32	1634
98.33	1547
98.34	1592
98.35	1622
98.36	1669
98.37	1639
98.38	1602
98.39	1645
98.4	1647
98.41	1624
98.42	1622
98.43	1602
98.44	1665
98.45	1660
98.46	1655
98.47	1654
98.48	1680
98.49	1617
98.5	1621
98.51	1597
98.52	1637
98.53	1613
98.54	1653
98.55	1662
98.56	1602
98.57	1619
98.58	1616
98.59	1616
98.6	1639
98.61	1622
98.62	1633
98.63	1654
98.64	1664
98.65	1624
98.66	1613
98.67	1592
98.68	1661
98.69	1656
98.7	1627
98.71	1665
98.72	1658
98.73	1683
98.74	1723
98.75	1672
98.76	1660
98.77	1666
98.78	1653
98.79	1626
98.8	1644
98.81	1649
98.82	1646
98.83	1641
98.84	1680
98.85	1669
98.86	1667
98.87	1670
98.88	1638
98.89	1639
98.9	1631
98.91	1628
98.92	1602
98.93	1629
98.94	1712
98.95	1710
98.96	1678
98.97	1668
98.98	1641
98.99	1596
99.0	1649
99.01	1706
99.02	1672
99.03	1621
99.04	1598
99.05	1643
99.06	1649
99.07	1633
99.08	1628
99.09	1565
99.1	1609
99.11	1656
99.12	1598
99.13	1617
99.14	1648
99.15	1611
99.16	1667
99.17	1650
99.18	1623
99.19	1622
99.2	1600
99.21	1632
99.22	1638
99.23	1594
99.24	1591
99.25	1631
99.26	1623
99.27	1614
99.28	1587
99.29	1599
99.3	1619
99.31	1608
99.32	1627
99.33	1588
99.34	1571
99.35	1631
99.36	1644
99.37	1611
99.38	1621
99.39	1597
99.4	1613
99.41	1635
99.42	1651
99.43	1645
99.44	1635
99.45	1595
99.46	1634
99.47	1645
99.48	1608
99.49	1643
99.5	1630
99.51	1637
99.52	1679
99.53	1671
99.54	1642
99.55	1636
99.56	1627
99.57	1686
99.58	1670
99.59	1632
99.6	1647
99.61	1643
99.62	1667
99.63	1696
99.64	1685
99.65	1689
99.66	1681
99.67	1723
99.68	1750
99.69	1744
99.7	1715
99.71	1755
99.72	1752
99.73	1769
99.74	1756
99.75	1828
99.76	1841
99.77	1782
99.78	1859
99.79	1799
99.8	1923
99.81	1881
99.82	1944
99.83	1985
99.84	1939
99.85	1889
99.86	1917
99.87	1951
99.88	1931
99.89	1857
99.9	1871
99.91	1861
99.92	1866
99.93	1879
99.94	1895
99.95	1824
99.96	1794
99.97	1809
99.98	1857
99.99	1807
100.0	1757
