10.0	1874
10.01	1865
10.02	1879
10.03	1933
10.04	1984
10.05	1975
10.06	1951
10.07	1930
10.08	1967
10.09	1973
10.1	1909
10.11	1915
10.12	1975
10.13	1940
10.14	1949
10.15	1941
10.16	1936
10.17	1927
10.18	1901
10.19	1947
10.2	1931
10.21	1928
10.22	1944
10.23	1952
10.24	1960
10.25	1923
10.26	1954
10.27	1997
10.28	1941
10.29	1936
10.3	1946
10.31	1920
10.32	1919
10.33	1932
10.34	1933
10.35	2011
10.36	1999
10.37	2005
10.38	1999
10.39	2016
10.4	1971
10.41	1996
10.42	1971
10.43	1957
10.44	1944
10.45	2005
10.46	1982
10.47	1950
10.48	1998
10.49	2023
10.5	1990
10.51	1996
10.52	2014
10.53	1987
10.54	1969
10.55	1995
10.56	1968
10.57	1966
10.58	1937
10.59	1952
10.6	1961
10.61	1913
10.62	1957
10.63	1988
10.64	1959
10.65	1958
10.66	2021
10.67	2021
10.68	1981
10.69	1997
10.7	2063
10.71	2007
10.72	2102
10.73	2073
10.74	2016
10.75	2042
10.76	1991
10.77	2004
10.78	1987
10.79	1988
10.8	2054
10.81	2041
10.82	2043
10.83	2014
10.84	2023
10.85	2050
10.86	2083
10.87	2028
10.88	2000
10.89	1998
10.9	2037
10.91	2029
10.92	2077
10.93	2137
10.94	2089
10.95	2029
10.96	2038
10.97	2069
10.98	2072
10.99	2031
11.0	2040
11.01	2057
11.02	1997
11.03	2030
11.04	2063
11.05	2097
11.06	2082
11.07	2097
11.08	2070
11.09	2018
11.1	2039
11.11	2028
11.12	2032
11.13	2063
11.14	2092
11.15	2059
11.16	2053
11.17	2064
11.18	2072
11.19	2080
11.2	1987
11.21	1997
11.22	1980
11.23	1988
11.24	1986
11.25	2009
11.26	2007
11.27	2080
11.28	2097
11.29	2112
11.3	2103
11.31	2088
11.32	2079
11.33	2073
11.34	2030
11.35	2047
11.36	2059
11.37	2070
11.38	2065
11.39	2084
11.4	2090
11.41	2119
11.42	2099
11.43	2107
11.44	2096
11.45	2095
11.46	2024
11.47	2028
11.48	2094
11.49	2144
11.5	2142
11.51	2129
11.52	2115
11.53	2095
11.54	2081
11.55	2040
11.56	2088
11.57	2101
11.58	2142
11.59	2160
11.6	2147
11.61	2158
11.62	2167
11.63	2094
11.64	2088
11.65	2073
11.66	2024
11.67	2082
11.68	2140
11.69	2115
11.7	2076
11.71	2063
11.72	2133
11.73	2136
11.74	2122
11.75	2130
11.76	2097
11.77	2103
11.78	2079
11.79	2068
11.8	2072
11.81	2130
11.82	2155
11.83	2123
11.84	2139
11.85	2084
11.86	2137
11.87	2138
11.88	2171
11.89	2139
11.9	2157
11.91	2115
11.92	2137
11.93	2142
11.94	2153
11.95	2174
11.96	2115
11.97	2153
11.98	2182
11.99	2198
12.0	2171
12.01	2183
12.02	2256
12.03	2175
12.04	2178
12.05	2165
12.06	2138
12.07	2136
12.08	2164
12.09	2149
12.1	2178
12.11	2213
12.12	2181
12.13	2140
12.14	2145
12.15	2179
12.16	2197
12.17	2134
12.18	2175
12.19	2163
12.2	2161
12.21	2219
12.22	2220
12.23	2207
12.24	2206
12.25	2190
12.26	2189
12.27	2195
12.28	2190
12.29	2200
12.3	2209
12.31	2181
12.32	2141
12.33	2153
12.34	2182
12.35	2205
12.36	2194
12.37	2150
12.38	2138
12.39	2175
12.4	2266
12.41	2237
12.42	2180
12.43	2162
12.44	2165
12.45	2147
12.46	2160
12.47	2153
12.48	2207
12.49	2217
12.5	2251
12.51	2213
12.52	2168
12.53	2188
12.54	2197
12.55	2150
12.56	2160
12.57	2176
12.58	2204
12.59	2225
12.6	2216
12.61	2194
12.62	2238
12.63	2281
12.64	2232
12.65	2166
12.66	2238
12.67	2255
12.68	2244
12.69	2261
12.7	2257
12.71	2225
12.72	2219
12.73	2235
12.74	2192
12.75	2188
12.76	2169
12.77	2202
12.78	2234
12.79	2264
12.8	2252
12.81	2246
12.82	2222
12.83	2253
12.84	2264
12.85	2233
12.86	2229
12.87	2213
12.88	2205
12.89	2237
12.9	2187
12.91	2273
12.92	2329
12.93	2277
12.94	2220
12.95	2237
12.96	2252
12.97	2222
12.98	2208
12.99	2210
13.0	2223
13.01	2262
13.02	2252
13.03	2252
13.04	2238
13.05	2274
13.06	2290
13.07	2278
13.08	2265
13.09	2222
13.1	2232
13.11	2284
13.12	2246
13.13	2194
13.14	2211
13.15	2266
13.16	2251
13.17	2214
13.18	2233
13.19	2257
13.2	2282
13.21	2310
13.22	2316
13.23	2268
13.24	2252
13.25	2214
13.26	2229
13.27	2257
13.28	2279
13.29	2286
13.3	2288
13.31	2286
13.32	2230
13.33	2256
13.34	2310
13.35	2232
13.36	2220
13.37	2267
13.38	2309
13.39	2266
13.4	2264
13.41	2330
13.42	2314
13.43	2253
13.44	2281
13.45	2309
13.46	2284
13.47	2291
13.48	2263
13.49	2265
13.5	2310
13.51	2287
13.52	2248
13.53	2279
13.54	2285
13.55	2234
13.56	2228
13.57	2290
13.58	2324
13.59	2309
13.6	2295
13.61	2294
13.62	2320
13.63	2290
13.64	2252
13.65	2267
13.66	2293
13.67	2303
13.68	2261
13.69	2291
13.7	2301
13.71	2307
13.72	2348
13.73	2295
13.74	2298
13.75	2303
13.76	2274
13.77	2236
13.78	2283
13.79	2319
13.8	2286
13.81	2304
13.82	2307
13.83	2282
13.84	2266
13.85	2286
13.86	2336
13.87	2260
13.88	2293
13.89	2309
13.9	2291
13.91	2288
13.92	2305
13.93	2327
13.94	2356
13.95	2334
13.96	2321
13.97	2297
13.98	2335
13.99	2335
14.0	2300
14.01	2278
14.02	2284
14.03	2312
14.04	2327
14.05	2377
14.06	2359
14.07	2316
14.08	2298
14.09	2343
14.1	2352
14.11	2320
14.12	2370
14.13	2383
14.14	2286
14.15	2232
14.16	2286
14.17	2336
14.18	2391
14.19	2357
14.2	2357
14.21	2396
14.22	2397
14.23	2351
14.24	2319
14.25	2337
14.26	2328
14.27	2302
14.28	2340
14.29	2354
14.3	2369
14.31	2364
14.32	2322
14.33	2320
14.34	2342
14.35	2370
14.36	2349
14.37	2357
14.38	2326
14.39	2353
14.4	2372
14.41	2327
14.42	2301
14.43	2328
14.44	2301
14.45	2285
14.46	2347
14.47	2352
14.48	2349
14.49	2327
14.5	2312
14.51	2310
14.52	2311
14.53	2294
14.54	2304
14.55	2335
14.56	2369
14.57	2382
14.58	2366
14.59	2371
14.6	2338
14.61	2306
14.62	2312
14.63	2344
14.64	2369
14.65	2356
14.66	2381
14.67	2320
14.68	2281
14.69	2324
14.7	2359
14.71	2369
14.72	2351
14.73	2354
14.74	2377
14.75	2378
14.76	2332
14.77	2306
14.78	2313
14.79	2308
14.8	2320
14.81	2312
14.82	2281
14.83	2291
14.84	2271
14.85	2240
14.86	2274
14.87	2334
14.88	2363
14.89	2338
14.9	2271
14.91	2267
14.92	2281
14.93	2279
14.94	2265
14.95	2247
14.96	2306
14.97	2320
14.98	2320
14.99	2308
15.0	2283
15.01	2276
15.02	2292
15.03	2335
15.04	2306
15.05	2246
15.06	2262
15.07	2260
15.08	2260
15.09	2288
15.1	2311
15.11	2341
15.12	2333
15.13	2263
15.14	2302
15.15	2357
15.16	2346
15.17	2323
15.18	2309
15.19	2311
15.2	2335
15.21	2346
15.22	2320
15.23	2275
15.24	2304
15.25	2295
15.26	2280
15.27	2289
15.28	2279
15.29	2322
15.3	2352
15.31	2336
15.32	2308
15.33	2299
15.34	2291
15.35	2311
15.36	2288
15.37	2290
15.38	2354
15.39	2299
15.4	2252
15.41	2265
15.42	2294
15.43	2316
15.44	2294
15.45	2233
15.46	2262
15.47	2291
15.48	2317
15.49	2328
15.5	2298
15.51	2278
15.52	2310
15.53	2321
15.54	2339
15.55	2374
15.56	2390
15.57	2375
15.58	2308
15.59	2262
15.6	2248
15.61	2293
15.62	2285
15.63	2294
15.64	2314
15.65	2330
15.66	2328
15.67	2285
15.68	2287
15.69	2283
15.7	2238
15.71	2229
15.72	2269
15.73	2317
15.74	2323
15.75	2306
15.76	2295
15.77	2287
15.78	2299
15.79	2310
15.8	2314
15.81	2320
15.82	2297
15.83	2282
15.84	2322
15.85	2365
15.86	2323
15.87	2288
15.88	2285
15.89	2301
15.9	2329
15.91	2305
15.92	2294
15.93	2299
15.94	2298
15.95	2280
15.96	2289
15.97	2331
15.98	2343
15.99	2279
16.0	2264
16.01	2276
16.02	2273
16.03	2242
16.04	2220
16.05	2275
16.06	2302
16.07	2314
16.08	2315
16.09	2305
16.1	2336
16.11	2334
16.12	2315
16.13	2339
16.14	2324
16.15	2271
16.16	2252
16.17	2286
16.18	2292
16.19	2310
16.2	2329
16.21	2282
16.22	2244
16.23	2279
16.24	2339
16.25	2323
16.26	2281
16.27	2293
16.28	2317
16.29	2286
16.3	2264
16.31	2246
16.32	2249
16.33	2284
16.34	2313
16.35	2293
16.36	2263
16.37	2246
16.38	2246
16.39	2291
16.4	2316
16.41	2306
16.42	2260
16.43	2219
16.44	2246
16.45	2236
16.46	2233
16.47	2291
16.48	2290
16.49	2253
16.5	2277
16.51	2318
16.52	2304
16.53	2269
16.54	2276
16.55	2294
16.56	2305
16.57	2309
16.58	2287
16.59	2268
16.6	2257
16.61	2258
16.62	2276
16.63	2289
16.64	2278
16.65	2298
16.66	2293
16.67	2265
16.68	2264
16.69	2269
16.7	2285
16.71	2341
16.72	2349
16.73	2331
16.74	2307
16.75	2278
16.76	2260
16.77	2238
16.78	2238
16.79	2290
16.8	2319
16.81	2275
16.82	2234
16.83	2227
16.84	2209
16.85	2230
16.86	2281
16.87	2304
16.88	2296
16.89	2284
16.9	2251
16.91	2250
16.92	2250
16.93	2242
16.94	2269
16.95	2258
16.96	2239
16.97	2277
16.98	2297
16.99	2272
17.0	2275
17.01	2273
17.02	2234
17.03	2224
17.04	2268
17.05	2280
17.06	2280
17.07	2281
17.08	2314
17.09	2312
17.1	2258
17.11	2275
17.12	2292
17.13	2283
17.14	2289
17.15	2277
17.16	2232
17.17	2217
17.18	2237
17.19	2253
17.2	2251
17.21	2237
17.22	2226
17.23	2233
17.24	2253
17.25	2268
17.26	2271
17.27	2260
17.28	2225
17.29	2241
17.3	2266
17.31	2232
17.32	2241
17.33	2283
17.34	2304
17.35	2285
17.36	2257
17.37	2259
17.38	2295
17.39	2315
17.4	2283
17.41	2249
17.42	2258
17.43	2239
17.44	2198
17.45	2216
17.46	2233
17.47	2236
17.48	2254
17.49	2268
17.5	2247
17.51	2231
17.52	2260
17.53	2298
17.54	2294
17.55	2282
17.56	2289
17.57	2278
17.58	2250
17.59	2259
17.6	2278
17.61	2293
17.62	2303
17.63	2270
17.64	2223
17.65	2171
17.66	2176
17.67	2203
17.68	2186
17.69	2195
17.7	2256
17.71	2325
17.72	2366
17.73	2327
17.74	2279
17.75	2265
17.76	2251
17.77	2273
17.78	2264
17.79	2230
17.8	2205
17.81	2191
17.82	2228
17.83	2282
17.84	2274
17.85	2268
17.86	2301
17.87	2277
17.88	2232
17.89	2218
17.9	2217
17.91	2239
17.92	2227
17.93	2190
17.94	2204
17.95	2232
17.96	2246
17.97	2273
17.98	2294
17.99	2283
18.0	2294
18.01	2296
18.02	2290
18.03	2256
18.04	2231
18.05	2255
18.06	2291
18.07	2295
18.08	2282
18.09	2293
18.1	2284
18.11	2287
18.12	2319
18.13	2343
18.14	2345
18.15	2294
18.16	2293
18.17	2336
18.18	2333
18.19	2335
18.2	2342
18.21	2371
18.22	2385
18.23	2381
18.24	2380
18.25	2363
18.26	2387
18.27	2394
18.28	2377
18.29	2413
18.3	2442
18.31	2430
18.32	2441
18.33	2458
18.34	2441
18.35	2447
18.36	2482
18.37	2507
18.38	2535
18.39	2586
18.4	2581
18.41	2539
18.42	2571
18.43	2631
18.44	2717
18.45	2760
18.46	2749
18.47	2779
18.48	2887
18.49	2978
18.5	3058
18.51	3105
18.52	3169
18.53	3262
18.54	3343
18.55	3425
18.56	3547
18.57	3704
18.58	3945
18.59	4190
18.6	4405
18.61	4591
18.62	4841
18.63	5219
18.64	5611
18.65	6044
18.66	6555
18.67	7044
18.68	7587
18.69	8270
18.7	9005
18.71	9718
18.72	10392
18.73	10953
18.74	11319
18.75	11499
18.76	11513
18.77	11191
18.78	10600
18.79	9711
18.8	8732
18.81	7884
18.82	6974
18.83	6046
18.84	5258
18.85	4651
18.86	4092
18.87	3661
18.88	3360
18.89	3145
18.9	3005
18.91	2901
18.92	2806
18.93	2694
18.94	2614
18.95	2595
18.96	2567
18.97	2507
18.98	2464
18.99	2468
19.0	2452
19.01	2449
19.02	2475
19.03	2471
19.04	2436
19.05	2406
19.06	2437
19.07	2425
19.08	2394
19.09	2392
19.1	2369
19.11	2343
19.12	2343
19.13	2351
19.14	2322
19.15	2276
19.16	2284
19.17	2270
19.18	2260
19.19	2275
19.2	2291
19.21	2278
19.22	2273
19.23	2257
19.24	2263
19.25	2247
19.26	2253
19.27	2273
19.28	2213
19.29	2142
19.3	2142
19.31	2241
19.32	2297
19.33	2278
19.34	2255
19.35	2227
19.36	2214
19.37	2231
19.38	2208
19.39	2215
19.4	2242
19.41	2249
19.42	2170
19.43	2145
19.44	2205
19.45	2236
19.46	2251
19.47	2227
19.48	2208
19.49	2183
19.5	2175
19.51	2209
19.52	2225
19.53	2223
19.54	2197
19.55	2198
19.56	2199
19.57	2158
19.58	2145
19.59	2158
19.6	2183
19.61	2226
19.62	2200
19.63	2189
19.64	2155
19.65	2122
19.66	2138
19.67	2143
19.68	2177
19.69	2185
19.7	2181
19.71	2197
19.72	2158
19.73	2119
19.74	2150
19.75	2228
19.76	2222
19.77	2177
19.78	2195
19.79	2172
19.8	2149
19.81	2159
19.82	2185
19.83	2161
19.84	2151
19.85	2190
19.86	2218
19.87	2204
19.88	2241
19.89	2173
19.9	2102
19.91	2104
19.92	2165
19.93	2167
19.94	2194
19.95	2159
19.96	2139
19.97	2104
19.98	2090
19.99	2093
20.0	2081
20.01	2129
20.02	2176
20.03	2150
20.04	2109
20.05	2085
20.06	2101
20.07	2119
20.08	2126
20.09	2117
20.1	2128
20.11	2168
20.12	2141
20.13	2103
20.14	2152
20.15	2170
20.16	2173
20.17	2179
20.18	2165
20.19	2111
20.2	2117
20.21	2153
20.22	2161
20.23	2129
20.24	2137
20.25	2183
20.26	2193
20.27	2145
20.28	2116
20.29	2130
20.3	2103
20.31	2125
20.32	2143
20.33	2177
20.34	2170
20.35	2141
20.36	2129
20.37	2163
20.38	2163
20.39	2139
20.4	2126
20.41	2146
20.42	2119
20.43	2141
20.44	2139
20.45	2152
20.46	2158
20.47	2148
20.48	2168
20.49	2165
20.5	2124
20.51	2133
20.52	2123
20.53	2134
20.54	2164
20.55	2176
20.56	2156
20.57	2172
20.58	2112
20.59	2134
20.6	2137
20.61	2180
20.62	2218
20.63	2235
20.64	2231
20.65	2249
20.66	2317
20.67	2325
20.68	2265
20.69	2266
20.7	2286
20.71	2299
20.72	2335
20.73	2374
20.74	2402
20.75	2505
20.76	2550
20.77	2612
20.78	2655
20.79	2719
20.8	2746
20.81	2869
20.82	2985
20.83	3020
20.84	3106
20.85	3213
20.86	3303
20.87	3336
20.88	3384
20.89	3422
20.9	3377
20.91	3331
20.92	3351
20.93	3322
20.94	3294
20.95	3204
20.96	3061
20.97	3026
20.98	2984
20.99	2995
21.0	2949
21.01	2863
21.02	2796
21.03	2793
21.04	2761
21.05	2709
21.06	2691
21.07	2719
21.08	2704
21.09	2678
21.1	2657
21.11	2612
21.12	2596
21.13	2591
21.14	2562
21.15	2558
21.16	2605
21.17	2622
21.18	2553
21.19	2491
21.2	2518
21.21	2562
21.22	2583
21.23	2517
21.24	2475
21.25	2473
21.26	2492
21.27	2548
21.28	2524
21.29	2475
21.3	2468
21.31	2480
21.32	2482
21.33	2515
21.34	2458
21.35	2505
21.36	2562
21.37	2521
21.38	2453
21.39	2479
21.4	2538
21.41	2492
21.42	2524
21.43	2503
21.44	2437
21.45	2425
21.46	2422
21.47	2406
21.48	2463
21.49	2484
21.5	2467
21.51	2456
21.52	2496
21.53	2458
21.54	2492
21.55	2453
21.56	2436
21.57	2438
21.58	2498
21.59	2544
21.6	2407
21.61	2445
21.62	2435
21.63	2443
21.64	2466
21.65	2500
21.66	2511
21.67	2472
21.68	2505
21.69	2480
21.7	2488
21.71	2524
21.72	2521
21.73	2550
21.74	2511
21.75	2481
21.76	2486
21.77	2477
21.78	2482
21.79	2398
21.8	2463
21.81	2527
21.82	2440
21.83	2442
21.84	2533
21.85	2508
21.86	2465
21.87	2456
21.88	2433
21.89	2388
21.9	2465
21.91	2418
21.92	2401
21.93	2427
21.94	2434
21.95	2388
21.96	2365
21.97	2415
21.98	2352
21.99	2366
22.0	2429
22.01	2381
22.02	2337
22.03	2290
22.04	2274
22.05	2306
22.06	2272
22.07	2305
22.08	2305
22.09	2311
22.1	2289
22.11	2233
22.12	2257
22.13	2249
22.14	2263
22.15	2239
22.16	2247
22.17	2252
22.18	2256
22.19	2182
22.2	2164
22.21	2149
22.22	2244
22.23	2194
22.24	2210
22.25	2200
22.26	2211
22.27	2252
22.28	2212
22.29	2166
22.3	2220
22.31	2179
22.32	2121
22.33	2186
22.34	2132
22.35	2172
22.36	2226
22.37	2155
22.38	2145
22.39	2199
22.4	2231
22.41	2222
22.42	2187
22.43	2141
22.44	2176
22.45	2112
22.46	2095
22.47	2115
22.48	2097
22.49	2155
22.5	2177
22.51	2213
22.52	2195
22.53	2142
22.54	2113
22.55	2182
22.56	2153
22.57	2123
22.58	2114
22.59	2140
22.6	2094
22.61	2141
22.62	2144
22.63	2112
22.64	2102
22.65	2166
22.66	2148
22.67	2128
22.68	2138
22.69	2151
22.7	2108
22.71	2125
22.72	2140
22.73	2123
22.74	2126
22.75	2096
22.76	2119
22.77	2113
22.78	2052
22.79	2044
22.8	2037
22.81	2080
22.82	2101
22.83	2098
22.84	2122
22.85	2062
22.86	2069
22.87	2078
22.88	2083
22.89	2109
22.9	2105
22.91	2031
22.92	1998
22.93	2027
22.94	2073
22.95	2088
22.96	2054
22.97	2089
22.98	2079
22.99	2073
23.0	2071
23.01	2075
23.02	2056
23.03	2065
23.04	2005
23.05	2058
23.06	2029
23.07	2049
23.08	2055
23.09	2109
23.1	2119
23.11	2070
23.12	2047
23.13	2053
23.14	2023
23.15	2022
23.16	2075
23.17	2101
23.18	2069
23.19	2050
23.2	2034
23.21	2031
23.22	2008
23.23	2086
23.24	2045
23.25	2060
23.26	2043
23.27	2011
23.28	2044
23.29	2062
23.3	2055
23.31	2040
23.32	2036
23.33	1989
23.34	2014
23.35	2009
23.36	1988
23.37	2004
23.38	2032
23.39	2027
23.4	2018
23.41	2001
23.42	1992
23.43	2001
23.44	2042
23.45	2050
23.46	2035
23.47	2041
23.48	2097
23.49	2086
23.5	2095
23.51	2054
23.52	2100
23.53	2073
23.54	2055
23.55	2060
23.56	2069
23.57	2065
23.58	2062
23.59	2009
23.6	2039
23.61	2059
23.62	2047
23.63	2079
23.64	2062
23.65	2038
23.66	1991
23.67	2005
23.68	2037
23.69	2014
23.7	1978
23.71	1988
23.72	2093
23.73	2108
23.74	2016
23.75	2006
23.76	2007
23.77	2008
23.78	1991
23.79	2022
23.8	2036
23.81	1951
23.82	1965
23.83	2009
23.84	1958
23.85	2027
23.86	1984
23.87	1992
23.88	2005
23.89	2029
23.9	2054
23.91	2029
23.92	2000
23.93	1983
23.94	2002
23.95	1951
23.96	1983
23.97	1981
23.98	1998
23.99	2016
24.0	2036
24.01	2000
24.02	1978
24.03	1989
24.04	1992
24.05	2033
24.06	2001
24.07	1937
24.08	2030
24.09	2051
24.1	2002
24.11	1965
24.12	1958
24.13	2033
24.14	2029
24.15	2016
24.16	2055
24.17	2078
24.18	2023
24.19	2009
24.2	2040
24.21	1994
24.22	2009
24.23	2067
24.24	2053
24.25	2004
24.26	2026
24.27	2009
24.28	2015
24.29	2048
24.3	2014
24.31	1985
24.32	2032
24.33	2080
24.34	2049
24.35	2040
24.36	2072
24.37	2040
24.38	2044
24.39	1996
24.4	1981
24.41	1957
24.42	1949
24.43	1964
24.44	1965
24.45	1972
24.46	1992
24.47	1955
24.48	1970
24.49	1981
24.5	1967
24.51	1964
24.52	1979
24.53	1947
24.54	1968
24.55	1947
24.56	1945
24.57	1979
24.58	1924
24.59	1905
24.6	1911
24.61	1912
24.62	1904
24.63	1902
24.64	1890
24.65	1881
24.66	1911
24.67	1926
24.68	1941
24.69	1949
24.7	1916
24.71	1934
24.72	1907
24.73	1955
24.74	1938
24.75	1898
24.76	1894
24.77	1923
24.78	1910
24.79	1885
24.8	1908
24.81	1936
24.82	1893
24.83	1853
24.84	1874
24.85	1875
24.86	1869
24.87	1891
24.88	1897
24.89	1896
24.9	1882
24.91	1893
24.92	1874
24.93	1848
24.94	1850
24.95	1850
24.96	1895
24.97	1909
24.98	1851
24.99	1914
25.0	1960
25.01	1922
25.02	1862
25.03	1837
25.04	1843
25.05	1847
25.06	1881
25.07	1873
25.08	1829
25.09	1819
25.1	1847
25.11	1853
25.12	1850
25.13	1890
25.14	1852
25.15	1852
25.16	1833
25.17	1853
25.18	1825
25.19	1832
25.2	1820
25.21	1829
25.22	1829
25.23	1796
25.24	1788
25.25	1814
25.26	1850
25.27	1820
25.28	1803
25.29	1817
25.3	1860
25.31	1839
25.32	1789
25.33	1784
25.34	1778
25.35	1841
25.36	1824
25.37	1831
25.38	1844
25.39	1842
25.4	1790
25.41	1788
25.42	1785
25.43	1803
25.44	1817
25.45	1818
25.46	1824
25.47	1809
25.48	1799
25.49	1802
25.5	1784
25.51	1826
25.52	1823
25.53	1817
25.54	1780
25.55	1735
25.56	1726
25.57	1780
25.58	1854
25.59	1853
25.6	1801
25.61	1785
25.62	1815
25.63	1809
25.64	1814
25.65	1828
25.66	1803
25.67	1787
25.68	1787
25.69	1798
25.7	1795
25.71	1806
25.72	1801
25.73	1778
25.74	1759
25.75	1738
25.76	1730
25.77	1785
25.78	1804
25.79	1775
25.8	1752
25.81	1788
25.82	1818
25.83	1798
25.84	1777
25.85	1776
25.86	1794
25.87	1778
25.88	1774
25.89	1774
25.9	1789
25.91	1754
25.92	1750
25.93	1761
25.94	1773
25.95	1776
25.96	1738
25.97	1772
25.98	1748
25.99	1739
26.0	1747
26.01	1727
26.02	1743
26.03	1744
26.04	1734
26.05	1742
26.06	1740
26.07	1747
26.08	1775
26.09	1808
26.1	1767
26.11	1720
26.12	1708
26.13	1725
26.14	1735
26.15	1759
26.16	1794
26.17	1806
26.18	1791
26.19	1775
26.2	1781
26.21	1800
26.22	1748
26.23	1743
26.24	1789
26.25	1804
26.26	1780
26.27	1760
26.28	1724
26.29	1720
26.3	1720
26.31	1716
26.32	1745
26.33	1749
26.34	1730
26.35	1716
26.36	1724
26.37	1760
26.38	1774
26.39	1743
26.4	1759
26.41	1786
26.42	1779
26.43	1747
26.44	1727
26.45	1735
26.46	1737
26.47	1727
26.48	1722
26.49	1743
26.5	1773
26.51	1759
26.52	1734
26.53	1711
26.54	1695
26.55	1715
26.56	1734
26.57	1729
26.58	1760
26.59	1754
26.6	1730
26.61	1742
26.62	1737
26.63	1731
26.64	1715
26.65	1712
26.66	1741
26.67	1770
26.68	1779
26.69	1787
26.7	1771
26.71	1765
26.72	1769
26.73	1759
26.74	1747
26.75	1750
26.76	1775
26.77	1749
26.78	1690
26.79	1700
26.8	1732
26.81	1720
26.82	1712
26.83	1724
26.84	1746
26.85	1724
26.86	1687
26.87	1678
26.88	1712
26.89	1710
26.9	1685
26.91	1659
26.92	1636
26.93	1663
26.94	1695
26.95	1705
26.96	1731
26.97	1750
26.98	1750
26.99	1710
27.0	1690
27.01	1744
27.02	1744
27.03	1722
27.04	1718
27.05	1705
27.06	1701
27.07	1714
27.08	1731
27.09	1739
27.1	1734
27.11	1740
27.12	1746
27.13	1726
27.14	1710
27.15	1723
27.16	1739
27.17	1719
27.18	1701
27.19	1707
27.2	1720
27.21	1706
27.22	1700
27.23	1721
27.24	1729
27.25	1740
27.26	1729
27.27	1697
27.28	1664
27.29	1653
27.3	1685
27.31	1684
27.32	1675
27.33	1674
27.34	1666
27.35	1684
27.36	1689
27.37	1689
27.38	1692
27.39	1697
27.4	1710
27.41	1727
27.42	1728
27.43	1739
27.44	1777
27.45	1744
27.46	1694
27.47	1694
27.48	1698
27.49	1713
27.5	1741
27.51	1722
27.52	1670
27.53	1651
27.54	1648
27.55	1650
27.56	1669
27.57	1694
27.58	1685
27.59	1666
27.6	1658
27.61	1664
27.62	1661
27.63	1623
27.64	1614
27.65	1673
27.66	1749
27.67	1737
27.68	1718
27.69	1717
27.7	1677
27.71	1669
27.72	1683
27.73	1675
27.74	1685
27.75	1691
27.76	1660
27.77	1667
27.78	1725
27.79	1749
27.8	1749
27.81	1747
27.82	1723
27.83	1682
27.84	1662
27.85	1660
27.86	1673
27.87	1702
27.88	1728
27.89	1717
27.9	1691
27.91	1713
27.92	1729
27.93	1737
27.94	1710
27.95	1686
27.96	1724
27.97	1744
27.98	1749
27.99	1715
28.0	1681
28.01	1693
28.02	1703
28.03	1666
28.04	1638
28.05	1674
28.06	1697
28.07	1681
28.08	1684
28.09	1708
28.1	1736
28.11	1701
28.12	1656
28.13	1649
28.14	1667
28.15	1705
28.16	1754
28.17	1770
28.18	1763
28.19	1726
28.2	1706
28.21	1694
28.22	1679
28.23	1686
28.24	1706
28.25	1681
28.26	1662
28.27	1676
28.28	1695
28.29	1695
28.3	1676
28.31	1650
28.32	1627
28.33	1630
28.34	1646
28.35	1681
28.36	1710
28.37	1733
28.38	1752
28.39	1684
28.4	1689
28.41	1700
28.42	1686
28.43	1691
28.44	1664
28.45	1675
28.46	1671
28.47	1651
28.48	1636
28.49	1647
28.5	1663
28.51	1623
28.52	1611
28.53	1660
28.54	1694
28.55	1693
28.56	1648
28.57	1609
28.58	1584
28.59	1605
28.6	1638
28.61	1641
28.62	1673
28.63	1691
28.64	1637
28.65	1613
28.66	1632
28.67	1648
28.68	1612
28.69	1626
28.7	1642
28.71	1613
28.72	1589
28.73	1626
28.74	1631
28.75	1613
28.76	1600
28.77	1628
28.78	1638
28.79	1615
28.8	1624
28.81	1617
28.82	1611
28.83	1609
28.84	1601
28.85	1600
28.86	1588
28.87	1587
28.88	1571
28.89	1588
28.9	1591
28.91	1561
28.92	1589
28.93	1633
28.94	1628
28.95	1604
28.96	1627
28.97	1633
28.98	1627
28.99	1613
29.0	1601
29.01	1572
29.02	1571
29.03	1613
29.04	1606
29.05	1590
29.06	1628
29.07	1625
29.08	1605
29.09	1605
29.1	1593
29.11	1605
29.12	1631
29.13	1620
29.14	1541
29.15	1538
29.16	1586
29.17	1640
29.18	1594
29.19	1597
29.2	1606
29.21	1570
29.22	1575
29.23	1583
29.24	1619
29.25	1596
29.26	1578
29.27	1591
29.28	1590
29.29	1601
29.3	1619
29.31	1608
29.32	1561
29.33	1522
29.34	1557
29.35	1560
29.36	1551
29.37	1560
29.38	1573
29.39	1562
29.4	1579
29.41	1622
29.42	1634
29.43	1588
29.44	1596
29.45	1606
29.46	1623
29.47	1611
29.48	1585
29.49	1554
29.5	1558
29.51	1583
29.52	1578
29.53	1563
29.54	1599
29.55	1614
29.56	1600
29.57	1575
29.58	1565
29.59	1600
29.6	1584
29.61	1563
29.62	1576
29.63	1576
29.64	1593
29.65	1556
29.66	1526
29.67	1511
29.68	1562
29.69	1568
29.7	1550
29.71	1576
29.72	1596
29.73	1577
29.74	1600
29.75	1623
29.76	1598
29.77	1578
29.78	1598
29.79	1582
29.8	1593
29.81	1545
29.82	1579
29.83	1603
29.84	1555
29.85	1555
29.86	1555
29.87	1545
29.88	1549
29.89	1570
29.9	1569
29.91	1564
29.92	1572
29.93	1593
29.94	1612
29.95	1592
29.96	1572
29.97	1584
29.98	1614
29.99	1599
30.0	1563
30.01	1566
30.02	1557
30.03	1580
30.04	1591
30.05	1581
30.06	1530
30.07	1533
30.08	1554
30.09	1570
30.1	1564
30.11	1564
30.12	1556
30.13	1529
30.14	1532
30.15	1539
30.16	1516
30.17	1531
30.18	1551
30.19	1558
30.2	1542
30.21	1578
30.22	1565
30.23	1529
30.24	1518
30.25	1548
30.26	1567
30.27	1543
30.28	1518
30.29	1497
30.3	1536
30.31	1519
30.32	1517
30.33	1519
30.34	1548
30.35	1545
30.36	1546
30.37	1567
30.38	1604
30.39	1561
30.4	1517
30.41	1555
30.42	1560
30.43	1567
30.44	1573
30.45	1569
30.46	1598
30.47	1549
30.48	1516
30.49	1529
30.5	1566
30.51	1554
30.52	1557
30.53	1556
30.54	1533
30.55	1552
30.56	1570
30.57	1548
30.58	1567
30.59	1521
30.6	1521
30.61	1554
30.62	1571
30.63	1611
30.64	1610
30.65	1535
30.66	1570
30.67	1585
30.68	1557
30.69	1545
30.7	1550
30.71	1511
30.72	1501
30.73	1549
30.74	1583
30.75	1580
30.76	1574
30.77	1573
30.78	1547
30.79	1506
30.8	1484
30.81	1527
30.82	1554
30.83	1520
30.84	1506
30.85	1505
30.86	1544
30.87	1580
30.88	1554
30.89	1557
30.9	1582
30.91	1550
30.92	1519
30.93	1530
30.94	1505
30.95	1505
30.96	1541
30.97	1558
30.98	1515
30.99	1507
31.0	1538
31.01	1564
31.02	1535
31.03	1504
31.04	1481
31.05	1497
31.06	1514
31.07	1527
31.08	1521
31.09	1514
31.1	1503
31.11	1526
31.12	1538
31.13	1538
31.14	1548
31.15	1530
31.16	1553
31.17	1573
31.18	1553
31.19	1547
31.2	1509
31.21	1546
31.22	1479
31.23	1495
31.24	1561
31.25	1541
31.26	1484
31.27	1522
31.28	1502
31.29	1473
31.3	1505
31.31	1554
31.32	1528
31.33	1504
31.34	1517
31.35	1550
31.36	1523
31.37	1518
31.38	1523
31.39	1463
31.4	1505
31.41	1490
31.42	1502
31.43	1535
31.44	1509
31.45	1432
31.46	1459
31.47	1485
31.48	1501
31.49	1510
31.5	1487
31.51	1519
31.52	1556
31.53	1500
31.54	1497
31.55	1509
31.56	1496
31.57	1498
31.58	1518
31.59	1527
31.6	1526
31.61	1533
31.62	1520
31.63	1527
31.64	1567
31.65	1547
31.66	1517
31.67	1527
31.68	1490
31.69	1461
31.7	1546
31.71	1563
31.72	1570
31.73	1500
31.74	1511
31.75	1546
31.76	1530
31.77	1538
31.78	1532
31.79	1539
31.8	1573
31.81	1554
31.82	1596
31.83	1555
31.84	1515
31.85	1542
31.86	1612
31.87	1602
31.88	1556
31.89	1570
31.9	1553
31.91	1452
31.92	1492
31.93	1545
31.94	1467
31.95	1507
31.96	1545
31.97	1510
31.98	1558
31.99	1562
32.0	1544
32.01	1499
32.02	1503
32.03	1481
32.04	1550
32.05	1533
32.06	1527
32.07	1522
32.08	1506
32.09	1488
32.1	1480
32.11	1507
32.12	1503
32.13	1454
32.14	1450
32.15	1445
32.16	1447
32.17	1500
32.18	1518
32.19	1496
32.2	1545
32.21	1559
32.22	1522
32.23	1517
32.24	1519
32.25	1484
32.26	1509
32.27	1565
32.28	1555
32.29	1490
32.3	1517
32.31	1538
32.32	1517
32.33	1474
32.34	1505
32.35	1509
32.36	1544
32.37	1520
32.38	1504
32.39	1540
32.4	1518
32.41	1463
32.42	1487
32.43	1526
32.44	1529
32.45	1515
32.46	1501
32.47	1529
32.48	1511
32.49	1491
32.5	1481
32.51	1496
32.52	1501
32.53	1530
32.54	1489
32.55	1537
32.56	1560
32.57	1527
32.58	1514
32.59	1520
32.6	1546
32.61	1499
32.62	1510
32.63	1463
32.64	1433
32.65	1485
32.66	1468
32.67	1473
32.68	1527
32.69	1516
32.7	1497
32.71	1492
32.72	1523
32.73	1525
32.74	1565
32.75	1528
32.76	1508
32.77	1473
32.78	1502
32.79	1530
32.8	1504
32.81	1512
32.82	1536
32.83	1544
32.84	1519
32.85	1452
32.86	1498
32.87	1522
32.88	1535
32.89	1497
32.9	1508
32.91	1474
32.92	1445
32.93	1471
32.94	1486
32.95	1476
32.96	1514
32.97	1497
32.98	1439
32.99	1468
33.0	1541
33.01	1506
33.02	1497
33.03	1456
33.04	1489
33.05	1487
33.06	1494
33.07	1471
33.08	1442
33.09	1460
33.1	1463
33.11	1474
33.12	1504
33.13	1545
33.14	1552
33.15	1542
33.16	1502
33.17	1492
33.18	1477
33.19	1500
33.2	1460
33.21	1429
33.22	1488
33.23	1527
33.24	1519
33.25	1486
33.26	1523
33.27	1466
33.28	1491
33.29	1502
33.3	1444
33.31	1460
33.32	1491
33.33	1497
33.34	1496
33.35	1495
33.36	1476
33.37	1465
33.38	1456
33.39	1503
33.4	1491
33.41	1466
33.42	1515
33.43	1532
33.44	1451
33.45	1448
33.46	1513
33.47	1530
33.48	1484
33.49	1439
33.5	1456
33.51	1477
33.52	1491
33.53	1506
33.54	1503
33.55	1506
33.56	1505
33.57	1485
33.58	1498
33.59	1485
33.6	1478
33.61	1460
33.62	1454
33.63	1471
33.64	1490
33.65	1497
33.66	1493
33.67	1512
33.68	1506
33.69	1477
33.7	1434
33.71	1441
33.72	1463
33.73	1467
33.74	1460
33.75	1449
33.76	1469
33.77	1506
33.78	1504
33.79	1460
33.8	1445
33.81	1456
33.82	1460
33.83	1486
33.84	1443
33.85	1478
33.86	1512
33.87	1483
33.88	1480
33.89	1509
33.9	1449
33.91	1463
33.92	1494
33.93	1488
33.94	1453
33.95	1488
33.96	1524
33.97	1460
33.98	1439
33.99	1435
34.0	1451
34.01	1471
34.02	1488
34.03	1487
34.04	1451
34.05	1429
34.06	1460
34.07	1494
34.08	1452
34.09	1446
34.1	1463
34.11	1456
34.12	1444
34.13	1430
34.14	1430
34.15	1439
34.16	1454
34.17	1454
34.18	1459
34.19	1489
34.2	1481
34.21	1468
34.22	1481
34.23	1423
34.24	1450
34.25	1487
34.26	1475
34.27	1491
34.28	1465
34.29	1456
34.3	1458
34.31	1433
34.32	1422
34.33	1420
34.34	1421
34.35	1416
34.36	1441
34.37	1469
34.38	1453
34.39	1428
34.4	1434
34.41	1434
34.42	1432
34.43	1442
34.44	1452
34.45	1449
34.46	1431
34.47	1466
34.48	1455
34.49	1421
34.5	1427
34.51	1420
34.52	1407
34.53	1426
34.54	1437
34.55	1423
34.56	1416
34.57	1452
34.58	1457
34.59	1436
34.6	1447
34.61	1474
34.62	1481
34.63	1469
34.64	1478
34.65	1467
34.66	1443
34.67	1437
34.68	1469
34.69	1473
34.7	1497
34.71	1465
34.72	1464
34.73	1428
34.74	1399
34.75	1417
34.76	1426
34.77	1437
34.78	1444
34.79	1491
34.8	1491
34.81	1475
34.82	1470
34.83	1474
34.84	1484
34.85	1451
34.86	1450
34.87	1473
34.88	1491
34.89	1462
34.9	1448
34.91	1434
34.92	1428
34.93	1461
34.94	1437
34.95	1421
34.96	1428
34.97	1420
34.98	1434
34.99	1451
35.0	1449
35.01	1436
35.02	1430
35.03	1472
35.04	1468
35.05	1444
35.06	1465
35.07	1456
35.08	1462
35.09	1479
35.1	1479
35.11	1451
35.12	1478
35.13	1474
35.14	1467
35.15	1452
35.16	1437
35.17	1444
35.18	1439
35.19	1452
35.2	1474
35.21	1478
35.22	1452
35.23	1396
35.24	1386
35.25	1419
35.26	1430
35.27	1421
35.28	1416
35.29	1469
35.3	1466
35.31	1432
35.32	1433
35.33	1456
35.34	1474
35.35	1455
35.36	1456
35.37	1446
35.38	1416
35.39	1426
35.4	1450
35.41	1448
35.42	1420
35.43	1419
35.44	1438
35.45	1447
35.46	1459
35.47	1454
35.48	1440
35.49	1428
35.5	1388
35.51	1373
35.52	1403
35.53	1429
35.54	1431
35.55	1453
35.56	1446
35.57	1428
35.58	1430
35.59	1462
35.6	1458
35.61	1446
35.62	1479
35.63	1490
35.64	1467
35.65	1447
35.66	1469
35.67	1467
35.68	1442
35.69	1451
35.7	1446
35.71	1445
35.72	1476
35.73	1465
35.74	1454
35.75	1445
35.76	1432
35.77	1466
35.78	1508
35.79	1483
35.8	1451
35.81	1466
35.82	1491
35.83	1489
35.84	1457
35.85	1431
35.86	1440
35.87	1445
35.88	1452
35.89	1482
35.9	1504
35.91	1496
35.92	1444
35.93	1424
35.94	1462
35.95	1477
35.96	1437
35.97	1437
35.98	1461
35.99	1455
36.0	1465
36.01	1486
36.02	1496
36.03	1480
36.04	1478
36.05	1492
36.06	1488
36.07	1467
36.08	1455
36.09	1455
36.1	1446
36.11	1451
36.12	1460
36.13	1474
36.14	1445
36.15	1429
36.16	1445
36.17	1437
36.18	1425
36.19	1427
36.2	1435
36.21	1443
36.22	1446
36.23	1471
36.24	1476
36.25	1474
36.26	1506
36.27	1507
36.28	1495
36.29	1494
36.3	1481
36.31	1458
36.32	1436
36.33	1445
36.34	1483
36.35	1494
36.36	1473
36.37	1476
36.38	1484
36.39	1473
36.4	1452
36.41	1468
36.42	1478
36.43	1456
36.44	1440
36.45	1445
36.46	1466
36.47	1478
36.48	1482
36.49	1491
36.5	1499
36.51	1473
36.52	1453
36.53	1482
36.54	1503
36.55	1480
36.56	1453
36.57	1478
36.58	1518
36.59	1496
36.6	1505
36.61	1513
36.62	1503
36.63	1520
36.64	1512
36.65	1526
36.66	1557
36.67	1556
36.68	1542
36.69	1557
36.7	1574
36.71	1560
36.72	1573
36.73	1593
36.74	1581
36.75	1598
36.76	1641
36.77	1638
36.78	1615
36.79	1641
36.8	1638
36.81	1630
36.82	1698
36.83	1764
36.84	1768
36.85	1801
36.86	1877
36.87	1932
36.88	1957
36.89	2003
36.9	2093
36.91	2214
36.92	2343
36.93	2451
36.94	2583
36.95	2796
36.96	3028
36.97	3230
36.98	3482
36.99	3757
37.0	4013
37.01	4300
37.02	4584
37.03	4877
37.04	5140
37.05	5287
37.06	5430
37.07	5529
37.08	5495
37.09	5430
37.1	5368
37.11	5193
37.12	4987
37.13	4782
37.14	4553
37.15	4390
37.16	4238
37.17	3998
37.18	3703
37.19	3438
37.2	3243
37.21	3095
37.22	2918
37.23	2688
37.24	2511
37.25	2369
37.26	2191
37.27	2064
37.28	1996
37.29	1926
37.3	1855
37.31	1797
37.32	1748
37.33	1706
37.34	1711
37.35	1725
37.36	1695
37.37	1648
37.38	1614
37.39	1610
37.4	1605
37.41	1574
37.42	1539
37.43	1532
37.44	1526
37.45	1533
37.46	1572
37.47	1564
37.48	1518
37.49	1508
37.5	1504
37.51	1525
37.52	1519
37.53	1496
37.54	1487
37.55	1516
37.56	1534
37.57	1527
37.58	1524
37.59	1534
37.6	1530
37.61	1479
37.62	1476
37.63	1508
37.64	1487
37.65	1466
37.66	1463
37.67	1460
37.68	1457
37.69	1454
37.7	1460
37.71	1469
37.72	1474
37.73	1470
37.74	1506
37.75	1529
37.76	1511
37.77	1521
37.78	1538
37.79	1510
37.8	1477
37.81	1485
37.82	1518
37.83	1539
37.84	1553
37.85	1546
37.86	1543
37.87	1542
37.88	1546
37.89	1539
37.9	1529
37.91	1570
37.92	1628
37.93	1649
37.94	1621
37.95	1599
37.96	1590
37.97	1618
37.98	1644
37.99	1643
38.0	1629
38.01	1657
38.02	1684
38.03	1652
38.04	1628
38.05	1601
38.06	1581
38.07	1598
38.08	1564
38.09	1518
38.1	1536
38.11	1554
38.12	1526
38.13	1534
38.14	1521
38.15	1514
38.16	1505
38.17	1483
38.18	1468
38.19	1432
38.2	1451
38.21	1487
38.22	1493
38.23	1485
38.24	1482
38.25	1503
38.26	1490
38.27	1476
38.28	1461
38.29	1447
38.3	1482
38.31	1480
38.32	1459
38.33	1451
38.34	1461
38.35	1489
38.36	1468
38.37	1442
38.38	1454
38.39	1449
38.4	1459
38.41	1507
38.42	1478
38.43	1465
38.44	1512
38.45	1505
38.46	1487
38.47	1483
38.48	1467
38.49	1501
38.5	1524
38.51	1542
38.52	1544
38.53	1556
38.54	1567
38.55	1553
38.56	1561
38.57	1588
38.58	1589
38.59	1581
38.6	1595
38.61	1632
38.62	1654
38.63	1691
38.64	1710
38.65	1710
38.66	1737
38.67	1818
38.68	1899
38.69	1931
38.7	1906
38.71	1889
38.72	1905
38.73	1916
38.74	1930
38.75	1909
38.76	1861
38.77	1831
38.78	1807
38.79	1809
38.8	1817
38.81	1785
38.82	1768
38.83	1718
38.84	1635
38.85	1586
38.86	1600
38.87	1596
38.88	1572
38.89	1560
38.9	1532
38.91	1514
38.92	1521
38.93	1516
38.94	1492
38.95	1491
38.96	1500
38.97	1484
38.98	1460
38.99	1496
39.0	1498
39.01	1464
39.02	1465
39.03	1478
39.04	1499
39.05	1505
39.06	1497
39.07	1462
39.08	1431
39.09	1430
39.1	1462
39.11	1489
39.12	1467
39.13	1441
39.14	1444
39.15	1422
39.16	1421
39.17	1432
39.18	1433
39.19	1473
39.2	1497
39.21	1459
39.22	1440
39.23	1448
39.24	1472
39.25	1460
39.26	1453
39.27	1430
39.28	1404
39.29	1449
39.3	1477
39.31	1476
39.32	1445
39.33	1423
39.34	1445
39.35	1451
39.36	1454
39.37	1426
39.38	1468
39.39	1488
39.4	1489
39.41	1483
39.42	1454
39.43	1423
39.44	1436
39.45	1408
39.46	1421
39.47	1459
39.48	1474
39.49	1434
39.5	1427
39.51	1386
39.52	1403
39.53	1432
39.54	1442
39.55	1428
39.56	1398
39.57	1412
39.58	1411
39.59	1417
39.6	1419
39.61	1439
39.62	1447
39.63	1423
39.64	1402
39.65	1415
39.66	1418
39.67	1430
39.68	1462
39.69	1416
39.7	1399
39.71	1467
39.72	1448
39.73	1429
39.74	1450
39.75	1462
39.76	1432
39.77	1430
39.78	1458
39.79	1450
39.8	1434
39.81	1468
39.82	1439
39.83	1485
39.84	1442
39.85	1442
39.86	1421
39.87	1442
39.88	1453
39.89	1437
39.9	1446
39.91	1429
39.92	1473
39.93	1518
39.94	1523
39.95	1463
39.96	1432
39.97	1462
39.98	1443
39.99	1395
40.0	1433
40.01	1440
40.02	1427
40.03	1419
40.04	1391
40.05	1399
40.06	1412
40.07	1398
40.08	1398
40.09	1418
40.1	1429
40.11	1407
40.12	1389
40.13	1422
40.14	1424
40.15	1411
40.16	1453
40.17	1469
40.18	1421
40.19	1418
40.2	1421
40.21	1374
40.22	1384
40.23	1410
40.24	1448
40.25	1421
40.26	1419
40.27	1410
40.28	1450
40.29	1444
40.3	1464
40.31	1441
40.32	1424
40.33	1392
40.34	1394
40.35	1392
40.36	1440
40.37	1452
40.38	1430
40.39	1439
40.4	1381
40.41	1385
40.42	1435
40.43	1462
40.44	1433
40.45	1433
40.46	1381
40.47	1409
40.48	1422
40.49	1446
40.5	1426
40.51	1418
40.52	1482
40.53	1488
40.54	1450
40.55	1442
40.56	1431
40.57	1488
40.58	1459
40.59	1443
40.6	1434
40.61	1408
40.62	1410
40.63	1423
40.64	1429
40.65	1442
40.66	1440
40.67	1398
40.68	1468
40.69	1450
40.7	1405
40.71	1403
40.72	1403
40.73	1410
40.74	1405
40.75	1383
40.76	1415
40.77	1432
40.78	1411
40.79	1387
40.8	1375
40.81	1395
40.82	1457
40.83	1448
40.84	1459
40.85	1438
40.86	1453
40.87	1426
40.88	1394
40.89	1417
40.9	1421
40.91	1432
40.92	1421
40.93	1399
40.94	1425
40.95	1425
40.96	1410
40.97	1450
40.98	1471
40.99	1449
41.0	1406
41.01	1434
41.02	1488
41.03	1474
41.04	1494
41.05	1448
41.06	1433
41.07	1504
41.08	1465
41.09	1477
41.1	1483
41.11	1440
41.12	1446
41.13	1400
41.14	1408
41.15	1445
41.16	1456
41.17	1479
41.18	1452
41.19	1419
41.2	1431
41.21	1484
41.22	1479
41.23	1476
41.24	1428
41.25	1416
41.26	1427
41.27	1406
41.28	1434
41.29	1475
41.3	1461
41.31	1424
41.32	1493
41.33	1443
41.34	1381
41.35	1409
41.36	1477
41.37	1493
41.38	1447
41.39	1504
41.4	1486
41.41	1455
41.42	1450
41.43	1454
41.44	1469
41.45	1374
41.46	1339
41.47	1446
41.48	1427
41.49	1363
41.5	1368
41.51	1394
41.52	1443
41.53	1417
41.54	1437
41.55	1437
41.56	1388
41.57	1343
41.58	1381
41.59	1397
41.6	1446
41.61	1428
41.62	1433
41.63	1430
41.64	1413
41.65	1407
41.66	1405
41.67	1462
41.68	1451
41.69	1420
41.7	1453
41.71	1436
41.72	1400
41.73	1396
41.74	1433
41.75	1432
41.76	1399
41.77	1424
41.78	1444
41.79	1471
41.8	1490
41.81	1424
41.82	1407
41.83	1459
41.84	1463
41.85	1477
41.86	1472
41.87	1440
41.88	1435
41.89	1426
41.9	1440
41.91	1456
41.92	1455
41.93	1396
41.94	1486
41.95	1436
41.96	1416
41.97	1443
41.98	1421
41.99	1421
42.0	1435
42.01	1432
42.02	1420
42.03	1437
42.04	1430
42.05	1398
42.06	1412
42.07	1417
42.08	1406
42.09	1391
42.1	1395
42.11	1409
42.12	1405
42.13	1433
42.14	1478
42.15	1462
42.16	1470
42.17	1450
42.18	1459
42.19	1462
42.2	1454
42.21	1472
42.22	1464
42.23	1442
42.24	1459
42.25	1463
42.26	1440
42.27	1473
42.28	1481
42.29	1419
42.3	1483
42.31	1497
42.32	1523
42.33	1508
42.34	1477
42.35	1518
42.36	1518
42.37	1480
42.38	1521
42.39	1533
42.4	1531
42.41	1523
42.42	1554
42.43	1568
42.44	1539
42.45	1568
42.46	1563
42.47	1559
42.48	1534
42.49	1566
42.5	1560
42.51	1553
42.52	1563
42.53	1538
42.54	1528
42.55	1488
42.56	1514
42.57	1542
42.58	1548
42.59	1517
42.6	1562
42.61	1559
42.62	1585
42.63	1584
42.64	1549
42.65	1538
42.66	1555
42.67	1518
42.68	1548
42.69	1573
42.7	1553
42.71	1527
42.72	1571
42.73	1547
42.74	1511
42.75	1546
42.76	1535
42.77	1555
42.78	1559
42.79	1557
42.8	1539
42.81	1525
42.82	1533
42.83	1513
42.84	1536
42.85	1521
42.86	1548
42.87	1499
42.88	1497
42.89	1544
42.9	1545
42.91	1545
42.92	1590
42.93	1552
42.94	1532
42.95	1532
42.96	1534
42.97	1525
42.98	1554
42.99	1501
43.0	1540
43.01	1514
43.02	1499
43.03	1488
43.04	1500
43.05	1458
43.06	1512
43.07	1534
43.08	1532
43.09	1522
43.1	1509
43.11	1518
43.12	1553
43.13	1576
43.14	1539
43.15	1541
43.16	1486
43.17	1507
43.18	1498
43.19	1585
43.2	1554
43.21	1539
43.22	1522
43.23	1526
43.24	1563
43.25	1546
43.26	1538
43.27	1539
43.28	1541
43.29	1599
43.3	1578
43.31	1592
43.32	1576
43.33	1527
43.34	1511
43.35	1563
43.36	1590
43.37	1561
43.38	1534
43.39	1531
43.4	1510
43.41	1556
43.42	1634
43.43	1585
43.44	1605
43.45	1596
43.46	1560
43.47	1535
43.48	1555
43.49	1585
43.5	1601
43.51	1599
43.52	1553
43.53	1543
43.54	1587
43.55	1558
43.56	1515
43.57	1548
43.58	1599
43.59	1558
43.6	1534
43.61	1564
43.62	1583
43.63	1548
43.64	1578
43.65	1545
43.66	1539
43.67	1563
43.68	1610
43.69	1611
43.7	1589
43.71	1562
43.72	1557
43.73	1547
43.74	1522
43.75	1538
43.76	1596
43.77	1548
43.78	1534
43.79	1581
43.8	1540
43.81	1560
43.82	1563
43.83	1567
43.84	1610
43.85	1605
43.86	1615
43.87	1585
43.88	1577
43.89	1550
43.9	1541
43.91	1552
43.92	1568
43.93	1596
43.94	1617
43.95	1605
43.96	1564
43.97	1558
43.98	1612
43.99	1654
44.0	1606
44.01	1564
44.02	1589
44.03	1606
44.04	1618
44.05	1633
44.06	1626
44.07	1630
44.08	1613
44.09	1618
44.1	1581
44.11	1586
44.12	1592
44.13	1605
44.14	1655
44.15	1687
44.16	1674
44.17	1634
44.18	1651
44.19	1633
44.2	1649
44.21	1723
44.22	1734
44.23	1694
44.24	1694
44.25	1665
44.26	1697
44.27	1712
44.28	1740
44.29	1767
44.3	1793
44.31	1790
44.32	1820
44.33	1843
44.34	1849
44.35	1911
44.36	1998
44.37	1978
44.38	1952
44.39	1987
44.4	2037
44.41	2051
44.42	2105
44.43	2176
44.44	2250
44.45	2253
44.46	2324
44.47	2350
44.48	2389
44.49	2500
44.5	2585
44.51	2663
44.52	2811
44.53	2988
44.54	3084
44.55	3241
44.56	3472
44.57	3723
44.58	3889
44.59	4106
44.6	4398
44.61	4728
44.62	5073
44.63	5432
44.64	5857
44.65	6261
44.66	6772
44.67	7326
44.68	7837
44.69	8324
44.7	8875
44.71	9510
44.72	10194
44.73	10740
44.74	11210
44.75	11618
44.76	11951
44.77	12264
44.78	12505
44.79	12641
44.8	12717
44.81	12665
44.82	12531
44.83	12264
44.84	12055
44.85	11789
44.86	11400
44.87	10984
44.88	10479
44.89	9987
44.9	9593
44.91	9230
44.92	8762
44.93	8186
44.94	7711
44.95	7293
44.96	6759
44.97	6215
44.98	5757
44.99	5396
45.0	5037
45.01	4673
45.02	4320
45.03	4044
45.04	3735
45.05	3507
45.06	3325
45.07	3133
45.08	2929
45.09	2830
45.1	2717
45.11	2576
45.12	2537
45.13	2469
45.14	2327
45.15	2238
45.16	2223
45.17	2166
45.18	2123
45.19	2056
45.2	2011
45.21	1971
45.22	1936
45.23	1930
45.24	1872
45.25	1870
45.26	1885
45.27	1871
45.28	1789
45.29	1754
45.3	1766
45.31	1738
45.32	1730
45.33	1769
45.34	1769
45.35	1715
45.36	1668
45.37	1651
45.38	1655
45.39	1664
45.4	1708
45.41	1679
45.42	1625
45.43	1626
45.44	1653
45.45	1652
45.46	1647
45.47	1615
45.48	1618
45.49	1582
45.5	1591
45.51	1604
45.52	1622
45.53	1630
45.54	1590
45.55	1573
45.56	1603
45.57	1560
45.58	1552
45.59	1556
45.6	1572
45.61	1579
45.62	1589
45.63	1600
45.64	1576
45.65	1548
45.66	1563
45.67	1580
45.68	1571
45.69	1546
45.7	1553
45.71	1543
45.72	1529
45.73	1561
45.74	1600
45.75	1577
45.76	1518
45.77	1509
45.78	1527
45.79	1505
45.8	1485
45.81	1539
45.82	1583
45.83	1533
45.84	1518
45.85	1546
45.86	1561
45.87	1541
45.88	1533
45.89	1572
45.9	1575
45.91	1560
45.92	1550
45.93	1552
45.94	1572
45.95	1551
45.96	1528
45.97	1504
45.98	1515
45.99	1537
46.0	1552
46.01	1513
46.02	1481
46.03	1513
46.04	1534
46.05	1530
46.06	1566
46.07	1590
46.08	1571
46.09	1583
46.1	1585
46.11	1545
46.12	1519
46.13	1522
46.14	1569
46.15	1573
46.16	1601
46.17	1582
46.18	1578
46.19	1556
46.2	1544
46.21	1571
46.22	1579
46.23	1558
46.24	1523
46.25	1491
46.26	1493
46.27	1534
46.28	1538
46.29	1548
46.3	1537
46.31	1557
46.32	1535
46.33	1517
46.34	1555
46.35	1562
46.36	1558
46.37	1556
46.38	1555
46.39	1537
46.4	1514
46.41	1476
46.42	1497
46.43	1465
46.44	1474
46.45	1520
46.46	1567
46.47	1579
46.48	1587
46.49	1618
46.5	1583
46.51	1536
46.52	1546
46.53	1515
46.54	1506
46.55	1523
46.56	1549
46.57	1550
46.58	1554
46.59	1572
46.6	1550
46.61	1521
46.62	1505
46.63	1535
46.64	1530
46.65	1518
46.66	1547
46.67	1557
46.68	1557
46.69	1554
46.7	1531
46.71	1558
46.72	1612
46.73	1586
46.74	1542
46.75	1536
46.76	1519
46.77	1526
46.78	1527
46.79	1559
46.8	1554
46.81	1558
46.82	1552
46.83	1529
46.84	1506
46.85	1506
46.86	1551
46.87	1583
46.88	1578
46.89	1555
46.9	1554
46.91	1540
46.92	1542
46.93	1564
46.94	1562
46.95	1547
46.96	1554
46.97	1538
46.98	1535
46.99	1515
47.0	1500
47.01	1514
47.02	1560
47.03	1559
47.04	1529
47.05	1535
47.06	1543
47.07	1547
47.08	1533
47.09	1503
47.1	1538
47.11	1581
47.12	1543
47.13	1515
47.14	1527
47.15	1533
47.16	1524
47.17	1532
47.18	1543
47.19	1562
47.2	1514
47.21	1514
47.22	1569
47.23	1565
47.24	1554
47.25	1534
47.26	1557
47.27	1531
47.28	1488
47.29	1530
47.3	1568
47.31	1529
47.32	1499
47.33	1513
47.34	1562
47.35	1542
47.36	1502
47.37	1511
47.38	1528
47.39	1522
47.4	1515
47.41	1551
47.42	1553
47.43	1545
47.44	1523
47.45	1491
47.46	1491
47.47	1523
47.48	1564
47.49	1539
47.5	1533
47.51	1531
47.52	1517
47.53	1523
47.54	1508
47.55	1516
47.56	1547
47.57	1535
47.58	1546
47.59	1562
47.6	1571
47.61	1565
47.62	1524
47.63	1538
47.64	1564
47.65	1559
47.66	1577
47.67	1542
47.68	1560
47.69	1588
47.7	1541
47.71	1521
47.72	1512
47.73	1487
47.74	1494
47.75	1549
47.76	1560
47.77	1542
47.78	1524
47.79	1531
47.8	1542
47.81	1537
47.82	1536
47.83	1567
47.84	1550
47.85	1547
47.86	1577
47.87	1576
47.88	1525
47.89	1498
47.9	1506
47.91	1514
47.92	1525
47.93	1559
47.94	1577
47.95	1547
47.96	1516
47.97	1523
47.98	1553
47.99	1538
48.0	1500
48.01	1492
48.02	1520
48.03	1546
48.04	1523
48.05	1484
48.06	1487
48.07	1507
48.08	1504
48.09	1493
48.1	1518
48.11	1538
48.12	1521
48.13	1534
48.14	1515
48.15	1508
48.16	1512
48.17	1515
48.18	1532
48.19	1528
48.2	1513
48.21	1533
48.22	1535
48.23	1525
48.24	1513
48.25	1506
48.26	1532
48.27	1514
48.28	1489
48.29	1521
48.3	1542
48.31	1509
48.32	1503
48.33	1533
48.34	1559
48.35	1555
48.36	1563
48.37	1565
48.38	1547
48.39	1563
48.4	1591
48.41	1566
48.42	1549
48.43	1539
48.44	1526
48.45	1532
48.46	1552
48.47	1593
48.48	1595
48.49	1570
48.5	1558
48.51	1579
48.52	1563
48.53	1605
48.54	1612
48.55	1591
48.56	1583
48.57	1559
48.58	1570
48.59	1597
48.6	1612
48.61	1615
48.62	1623
48.63	1625
48.64	1596
48.65	1591
48.66	1654
48.67	1689
48.68	1677
48.69	1686
48.7	1713
48.71	1715
48.72	1717
48.73	1740
48.74	1762
48.75	1780
48.76	1802
48.77	1878
48.78	1929
48.79	1917
48.8	1928
48.81	1970
48.82	2052
48.83	2155
48.84	2231
48.85	2256
48.86	2277
48.87	2343
48.88	2427
48.89	2488
48.9	2486
48.91	2511
48.92	2567
48.93	2566
48.94	2581
48.95	2586
48.96	2581
48.97	2602
48.98	2572
48.99	2511
49.0	2447
49.01	2390
49.02	2375
49.03	2378
49.04	2347
49.05	2277
49.06	2232
49.07	2245
49.08	2220
49.09	2154
49.1	2114
49.11	2088
49.12	2038
49.13	1993
49.14	1950
49.15	1905
49.16	1856
49.17	1816
49.18	1821
49.19	1803
49.2	1781
49.21	1747
49.22	1698
49.23	1678
49.24	1682
49.25	1686
49.26	1673
49.27	1648
49.28	1642
49.29	1629
49.3	1614
49.31	1609
49.32	1584
49.33	1553
49.34	1566
49.35	1589
49.36	1608
49.37	1590
49.38	1579
49.39	1608
49.4	1621
49.41	1609
49.42	1578
49.43	1532
49.44	1524
49.45	1555
49.46	1559
49.47	1557
49.48	1575
49.49	1587
49.5	1588
49.51	1576
49.52	1566
49.53	1562
49.54	1570
49.55	1596
49.56	1567
49.57	1540
49.58	1562
49.59	1581
49.6	1575
49.61	1553
49.62	1533
49.63	1518
49.64	1513
49.65	1523
49.66	1552
49.67	1579
49.68	1587
49.69	1541
49.7	1526
49.71	1595
49.72	1591
49.73	1564
49.74	1572
49.75	1544
49.76	1535
49.77	1550
49.78	1578
49.79	1595
49.8	1587
49.81	1567
49.82	1573
49.83	1578
49.84	1582
49.85	1598
49.86	1597
49.87	1607
49.88	1587
49.89	1549
49.9	1549
49.91	1564
49.92	1559
49.93	1544
49.94	1549
49.95	1568
49.96	1576
49.97	1569
49.98	1556
49.99	1567
50.0	1585
50.01	1601
50.02	1579
50.03	1549
50.04	1546
50.05	1545
50.06	1580
50.07	1590
50.08	1552
50.09	1531
50.1	1547
50.11	1532
50.12	1506
50.13	1506
50.14	1533
50.15	1551
50.16	1535
50.17	1535
50.18	1563
50.19	1585
50.2	1551
50.21	1498
50.22	1501
50.23	1531
50.24	1550
50.25	1570
50.26	1557
50.27	1552
50.28	1581
50.29	1568
50.3	1555
50.31	1543
50.32	1498
50.33	1502
50.34	1534
50.35	1548
50.36	1553
50.37	1526
50.38	1515
50.39	1536
50.4	1542
50.41	1534
50.42	1545
50.43	1535
50.44	1518
50.45	1536
50.46	1527
50.47	1552
50.48	1580
50.49	1572
50.5	1573
50.51	1568
50.52	1591
50.53	1564
50.54	1523
50.55	1552
50.56	1577
50.57	1571
50.58	1547
50.59	1536
50.6	1526
50.61	1541
50.62	1577
50.63	1562
50.64	1547
50.65	1581
50.66	1589
50.67	1548
50.68	1536
50.69	1536
50.7	1520
50.71	1528
50.72	1548
50.73	1564
50.74	1547
50.75	1518
50.76	1522
50.77	1529
50.78	1560
50.79	1548
50.8	1494
50.81	1506
50.82	1543
50.83	1533
50.84	1533
50.85	1527
50.86	1495
50.87	1533
50.88	1553
50.89	1528
50.9	1528
50.91	1542
50.92	1542
50.93	1512
50.94	1494
50.95	1516
50.96	1527
50.97	1522
50.98	1533
50.99	1554
51.0	1564
51.01	1557
51.02	1540
51.03	1525
51.04	1531
51.05	1554
51.06	1571
51.07	1560
51.08	1548
51.09	1557
51.1	1580
51.11	1588
51.12	1547
51.13	1516
51.14	1519
51.15	1505
51.16	1489
51.17	1525
51.18	1581
51.19	1596
51.2	1573
51.21	1547
51.22	1541
51.23	1524
51.24	1500
51.25	1508
51.26	1554
51.27	1569
51.28	1541
51.29	1523
51.3	1544
51.31	1565
51.32	1544
51.33	1527
51.34	1515
51.35	1511
51.36	1540
51.37	1547
51.38	1549
51.39	1570
51.4	1558
51.41	1539
51.42	1526
51.43	1516
51.44	1535
51.45	1501
51.46	1458
51.47	1513
51.48	1567
51.49	1534
51.5	1504
51.51	1533
51.52	1562
51.53	1547
51.54	1525
51.55	1508
51.56	1507
51.57	1508
51.58	1532
51.59	1546
51.6	1513
51.61	1482
51.62	1498
51.63	1530
51.64	1542
51.65	1564
51.66	1576
51.67	1549
51.68	1535
51.69	1538
51.7	1539
51.71	1498
51.72	1486
51.73	1544
51.74	1570
51.75	1541
51.76	1521
51.77	1543
51.78	1549
51.79	1510
51.8	1501
51.81	1481
51.82	1471
51.83	1499
51.84	1511
51.85	1531
51.86	1535
51.87	1538
51.88	1553
51.89	1541
51.9	1545
51.91	1567
51.92	1543
51.93	1521
51.94	1517
51.95	1543
51.96	1544
51.97	1539
51.98	1541
51.99	1516
52.0	1506
52.01	1519
52.02	1510
52.03	1509
52.04	1529
52.05	1538
52.06	1517
52.07	1524
52.08	1567
52.09	1588
52.1	1597
52.11	1586
52.12	1582
52.13	1551
52.14	1532
52.15	1524
52.16	1528
52.17	1546
52.18	1533
52.19	1562
52.2	1601
52.21	1551
52.22	1516
52.23	1525
52.24	1513
52.25	1532
52.26	1525
52.27	1524
52.28	1544
52.29	1534
52.3	1541
52.31	1566
52.32	1568
52.33	1559
52.34	1569
52.35	1566
52.36	1574
52.37	1574
52.38	1575
52.39	1557
52.4	1535
52.41	1553
52.42	1545
52.43	1515
52.44	1526
52.45	1560
52.46	1523
52.47	1488
52.48	1500
52.49	1511
52.5	1522
52.51	1541
52.52	1538
52.53	1520
52.54	1527
52.55	1521
52.56	1546
52.57	1575
52.58	1586
52.59	1582
52.6	1561
52.61	1542
52.62	1535
52.63	1505
52.64	1466
52.65	1515
52.66	1563
52.67	1549
52.68	1528
52.69	1519
52.7	1551
52.71	1559
52.72	1546
52.73	1530
52.74	1541
52.75	1582
52.76	1558
52.77	1513
52.78	1530
52.79	1564
52.8	1565
52.81	1561
52.82	1553
52.83	1517
52.84	1494
52.85	1523
52.86	1543
52.87	1515
52.88	1516
52.89	1558
52.9	1558
52.91	1549
52.92	1544
52.93	1543
52.94	1559
52.95	1578
52.96	1599
52.97	1585
52.98	1560
52.99	1526
53.0	1526
53.01	1566
53.02	1588
53.03	1560
53.04	1557
53.05	1553
53.06	1529
53.07	1529
53.08	1536
53.09	1535
53.1	1531
53.11	1520
53.12	1535
53.13	1536
53.14	1549
53.15	1556
53.16	1534
53.17	1521
53.18	1521
53.19	1562
53.2	1563
53.21	1535
53.22	1559
53.23	1574
53.24	1561
53.25	1562
53.26	1545
53.27	1529
53.28	1544
53.29	1557
53.3	1549
53.31	1543
53.32	1570
53.33	1585
53.34	1589
53.35	1574
53.36	1523
53.37	1518
53.38	1512
53.39	1520
53.4	1525
53.41	1543
53.42	1546
53.43	1541
53.44	1559
53.45	1569
53.46	1565
53.47	1542
53.48	1547
53.49	1566
53.5	1555
53.51	1559
53.52	1552
53.53	1504
53.54	1534
53.55	1588
53.56	1573
53.57	1533
53.58	1539
53.59	1563
53.6	1568
53.61	1581
53.62	1569
53.63	1553
53.64	1578
53.65	1576
53.66	1580
53.67	1591
53.68	1571
53.69	1535
53.7	1546
53.71	1557
53.72	1532
53.73	1546
53.74	1557
53.75	1553
53.76	1580
53.77	1605
53.78	1608
53.79	1573
53.8	1521
53.81	1535
53.82	1567
53.83	1587
53.84	1558
53.85	1566
53.86	1570
53.87	1584
53.88	1573
53.89	1527
53.9	1522
53.91	1551
53.92	1555
53.93	1556
53.94	1566
53.95	1575
53.96	1582
53.97	1562
53.98	1584
53.99	1601
54.0	1592
54.01	1615
54.02	1626
54.03	1602
54.04	1575
54.05	1575
54.06	1577
54.07	1574
54.08	1577
54.09	1583
54.1	1563
54.11	1567
54.12	1577
54.13	1560
54.14	1550
54.15	1529
54.16	1508
54.17	1531
54.18	1563
54.19	1566
54.2	1556
54.21	1559
54.22	1590
54.23	1597
54.24	1570
54.25	1568
54.26	1583
54.27	1592
54.28	1603
54.29	1581
54.3	1560
54.31	1546
54.32	1518
54.33	1508
54.34	1525
54.35	1533
54.36	1525
54.37	1538
54.38	1580
54.39	1563
54.4	1549
54.41	1592
54.42	1600
54.43	1563
54.44	1550
54.45	1557
54.46	1532
54.47	1531
54.48	1554
54.49	1563
54.5	1574
54.51	1583
54.52	1581
54.53	1568
54.54	1561
54.55	1537
54.56	1505
54.57	1534
54.58	1536
54.59	1567
54.6	1578
54.61	1558
54.62	1558
54.63	1544
54.64	1544
54.65	1573
54.66	1579
54.67	1564
54.68	1571
54.69	1556
54.7	1553
54.71	1544
54.72	1551
54.73	1561
54.74	1564
54.75	1579
54.76	1532
54.77	1513
54.78	1551
54.79	1535
54.8	1514
54.81	1534
54.82	1542
54.83	1538
54.84	1539
54.85	1532
54.86	1553
54.87	1559
54.88	1565
54.89	1588
54.9	1592
54.91	1567
54.92	1556
54.93	1557
54.94	1544
54.95	1547
54.96	1552
54.97	1575
54.98	1552
54.99	1520
55.0	1537
55.01	1554
55.02	1542
55.03	1551
55.04	1553
55.05	1543
55.06	1557
55.07	1533
55.08	1514
55.09	1546
55.1	1559
55.11	1549
55.12	1587
55.13	1588
55.14	1559
55.15	1578
55.16	1590
55.17	1579
55.18	1549
55.19	1543
55.2	1552
55.21	1553
55.22	1548
55.23	1531
55.24	1529
55.25	1554
55.26	1528
55.27	1548
55.28	1552
55.29	1540
55.3	1537
55.31	1535
55.32	1540
55.33	1558
55.34	1587
55.35	1575
55.36	1589
55.37	1632
55.38	1629
55.39	1576
55.4	1570
55.41	1577
55.42	1553
55.43	1579
55.44	1601
55.45	1604
55.46	1588
55.47	1557
55.48	1573
55.49	1591
55.5	1589
55.51	1593
55.52	1587
55.53	1569
55.54	1577
55.55	1596
55.56	1548
55.57	1535
55.58	1570
55.59	1591
55.6	1589
55.61	1568
55.62	1563
55.63	1577
55.64	1585
55.65	1577
55.66	1530
55.67	1544
55.68	1584
55.69	1576
55.7	1587
55.71	1592
55.72	1546
55.73	1527
55.74	1543
55.75	1559
55.76	1560
55.77	1555
55.78	1604
55.79	1599
55.8	1603
55.81	1612
55.82	1591
55.83	1590
55.84	1583
55.85	1560
55.86	1633
55.87	1615
55.88	1569
55.89	1537
55.9	1533
55.91	1631
55.92	1627
55.93	1549
55.94	1517
55.95	1553
55.96	1563
55.97	1549
55.98	1547
55.99	1589
56.0	1621
56.01	1571
56.02	1549
56.03	1599
56.04	1619
56.05	1612
56.06	1593
56.07	1560
56.08	1547
56.09	1575
56.1	1591
56.11	1576
56.12	1590
56.13	1604
56.14	1573
56.15	1574
56.16	1577
56.17	1601
56.18	1574
56.19	1551
56.2	1576
56.21	1577
56.22	1560
56.23	1577
56.24	1571
56.25	1555
56.26	1568
56.27	1624
56.28	1657
56.29	1612
56.3	1544
56.31	1537
56.32	1555
56.33	1590
56.34	1607
56.35	1616
56.36	1640
56.37	1617
56.38	1603
56.39	1603
56.4	1642
56.41	1603
56.42	1575
56.43	1579
56.44	1591
56.45	1601
56.46	1547
56.47	1510
56.48	1555
56.49	1581
56.5	1597
56.51	1555
56.52	1556
56.53	1604
56.54	1620
56.55	1594
56.56	1559
56.57	1599
56.58	1610
56.59	1600
56.6	1583
56.61	1587
56.62	1602
56.63	1578
56.64	1563
56.65	1552
56.66	1551
56.67	1575
56.68	1580
56.69	1590
56.7	1600
56.71	1600
56.72	1623
56.73	1617
56.74	1596
56.75	1583
56.76	1578
56.77	1611
56.78	1610
56.79	1619
56.8	1645
56.81	1610
56.82	1577
56.83	1573
56.84	1608
56.85	1628
56.86	1673
56.87	1722
56.88	1686
56.89	1667
56.9	1677
56.91	1629
56.92	1604
56.93	1634
56.94	1624
56.95	1610
56.96	1634
56.97	1663
56.98	1682
56.99	1665
57.0	1710
57.01	1717
57.02	1691
57.03	1712
57.04	1738
57.05	1726
57.06	1752
57.07	1782
57.08	1774
57.09	1795
57.1	1798
57.11	1797
57.12	1826
57.13	1819
57.14	1843
57.15	1849
57.16	1842
57.17	1836
57.18	1798
57.19	1817
57.2	1856
57.21	1848
57.22	1857
57.23	1832
57.24	1854
57.25	1837
57.26	1850
57.27	1855
57.28	1838
57.29	1814
57.3	1859
57.31	1877
57.32	1867
57.33	1868
57.34	1900
57.35	1882
57.36	1862
57.37	1869
57.38	1854
57.39	1797
57.4	1777
57.41	1769
57.42	1822
57.43	1848
57.44	1828
57.45	1806
57.46	1825
57.47	1825
57.48	1826
57.49	1845
57.5	1841
57.51	1788
57.52	1766
57.53	1804
57.54	1838
57.55	1851
57.56	1826
57.57	1764
57.58	1787
57.59	1812
57.6	1804
57.61	1796
57.62	1817
57.63	1758
57.64	1793
57.65	1785
57.66	1756
57.67	1739
57.68	1759
57.69	1805
57.7	1808
57.71	1770
57.72	1788
57.73	1803
57.74	1822
57.75	1813
57.76	1791
57.77	1781
57.78	1776
57.79	1742
57.8	1747
57.81	1747
57.82	1788
57.83	1799
57.84	1750
57.85	1757
57.86	1755
57.87	1722
57.88	1769
57.89	1787
57.9	1738
57.91	1732
57.92	1773
57.93	1763
57.94	1738
57.95	1754
57.96	1735
57.97	1702
57.98	1725
57.99	1747
58.0	1759
58.01	1768
58.02	1755
58.03	1743
58.04	1693
58.05	1725
58.06	1757
58.07	1713
58.08	1760
58.09	1761
58.1	1711
58.11	1744
58.12	1769
58.13	1741
58.14	1762
58.15	1817
58.16	1818
58.17	1786
58.18	1766
58.19	1771
58.2	1769
58.21	1775
58.22	1748
58.23	1757
58.24	1799
58.25	1841
58.26	1818
58.27	1818
58.28	1774
58.29	1758
58.3	1805
58.31	1822
58.32	1832
58.33	1826
58.34	1824
58.35	1867
58.36	1933
58.37	1923
58.38	1956
58.39	1939
58.4	1872
58.41	1887
58.42	1924
58.43	1893
58.44	1924
58.45	1923
58.46	1879
58.47	1820
58.48	1802
58.49	1909
58.5	1958
58.51	1935
58.52	1889
58.53	1943
58.54	1978
58.55	1933
58.56	1907
58.57	1962
58.58	1960
58.59	1926
58.6	1961
58.61	1969
58.62	1986
58.63	2012
58.64	2063
58.65	2063
58.66	2025
58.67	2052
58.68	2070
58.69	2103
58.7	2185
58.71	2223
58.72	2204
58.73	2226
58.74	2232
58.75	2278
58.76	2323
58.77	2336
58.78	2399
58.79	2489
58.8	2542
58.81	2584
58.82	2677
58.83	2762
58.84	2815
58.85	2815
58.86	2881
58.87	2890
58.88	2930
58.89	3001
58.9	3052
58.91	3129
58.92	3173
58.93	3184
58.94	3188
58.95	3213
58.96	3141
58.97	3115
58.98	3204
58.99	3189
59.0	3100
59.01	3023
59.02	2989
59.03	2964
59.04	2962
59.05	2935
59.06	2895
59.07	2839
59.08	2774
59.09	2747
59.1	2704
59.11	2641
59.12	2611
59.13	2635
59.14	2567
59.15	2437
59.16	2359
59.17	2372
59.18	2332
59.19	2288
59.2	2268
59.21	2240
59.22	2216
59.23	2195
59.24	2083
59.25	1981
59.26	2015
59.27	2005
59.28	1969
59.29	1952
59.3	1951
59.31	1946
59.32	1874
59.33	1863
59.34	1851
59.35	1844
59.36	1801
59.37	1805
59.38	1819
59.39	1790
59.4	1756
59.41	1751
59.42	1744
59.43	1774
59.44	1804
59.45	1769
59.46	1752
59.47	1723
59.48	1725
59.49	1725
59.5	1757
59.51	1739
59.52	1713
59.53	1717
59.54	1736
59.55	1746
59.56	1799
59.57	1731
59.58	1688
59.59	1700
59.6	1692
59.61	1694
59.62	1656
59.63	1633
59.64	1634
59.65	1649
59.66	1669
59.67	1659
59.68	1652
59.69	1709
59.7	1758
59.71	1736
59.72	1705
59.73	1709
59.74	1695
59.75	1668
59.76	1687
59.77	1706
59.78	1731
59.79	1708
59.8	1676
59.81	1696
59.82	1734
59.83	1721
59.84	1698
59.85	1670
59.86	1653
59.87	1705
59.88	1713
59.89	1696
59.9	1684
59.91	1671
59.92	1716
59.93	1701
59.94	1683
59.95	1704
59.96	1708
59.97	1689
59.98	1641
59.99	1662
60.0	1637
60.01	1643
60.02	1638
60.03	1646
60.04	1680
60.05	1728
60.06	1712
60.07	1678
60.08	1713
60.09	1728
60.1	1723
60.11	1686
60.12	1683
60.13	1695
60.14	1692
60.15	1671
60.16	1685
60.17	1647
60.18	1653
60.19	1665
60.2	1643
60.21	1627
60.22	1656
60.23	1671
60.24	1663
60.25	1692
60.26	1707
60.27	1707
60.28	1726
60.29	1679
60.3	1665
60.31	1666
60.32	1682
60.33	1710
60.34	1666
60.35	1700
60.36	1709
60.37	1688
60.38	1660
60.39	1693
60.4	1722
60.41	1728
60.42	1729
60.43	1703
60.44	1711
60.45	1721
60.46	1733
60.47	1707
60.48	1700
60.49	1686
60.5	1673
60.51	1668
60.52	1654
60.53	1682
60.54	1700
60.55	1708
60.56	1716
60.57	1712
60.58	1697
60.59	1684
60.6	1696
60.61	1685
60.62	1739
60.63	1730
60.64	1649
60.65	1635
60.66	1683
60.67	1733
60.68	1730
60.69	1711
60.7	1705
60.71	1731
60.72	1716
60.73	1678
60.74	1683
60.75	1698
60.76	1693
60.77	1640
60.78	1656
60.79	1695
60.8	1735
60.81	1705
60.82	1662
60.83	1671
60.84	1729
60.85	1700
60.86	1674
60.87	1684
60.88	1678
60.89	1656
60.9	1650
60.91	1714
60.92	1670
60.93	1636
60.94	1660
60.95	1694
60.96	1720
60.97	1718
60.98	1691
60.99	1695
61.0	1650
61.01	1608
61.02	1648
61.03	1701
61.04	1676
61.05	1664
61.06	1667
61.07	1648
61.08	1652
61.09	1637
61.1	1664
61.11	1674
61.12	1666
61.13	1652
61.14	1641
61.15	1682
61.16	1691
61.17	1745
61.18	1676
61.19	1622
61.2	1662
61.21	1652
61.22	1601
61.23	1638
61.24	1643
61.25	1618
61.26	1677
61.27	1663
61.28	1636
61.29	1703
61.3	1695
61.31	1659
61.32	1663
61.33	1693
61.34	1691
61.35	1642
61.36	1621
61.37	1656
61.38	1630
61.39	1622
61.4	1658
61.41	1645
61.42	1669
61.43	1688
61.44	1705
61.45	1722
61.46	1707
61.47	1639
61.48	1618
61.49	1657
61.5	1659
61.51	1658
61.52	1665
61.53	1663
61.54	1677
61.55	1703
61.56	1675
61.57	1678
61.58	1674
61.59	1662
61.6	1609
61.61	1615
61.62	1612
61.63	1648
61.64	1679
61.65	1682
61.66	1634
61.67	1639
61.68	1662
61.69	1687
61.7	1707
61.71	1727
61.72	1700
61.73	1660
61.74	1632
61.75	1626
61.76	1607
61.77	1600
61.78	1663
61.79	1651
61.8	1672
61.81	1667
61.82	1624
61.83	1618
61.84	1681
61.85	1697
61.86	1695
61.87	1689
61.88	1657
61.89	1603
61.9	1616
61.91	1654
61.92	1616
61.93	1635
61.94	1669
61.95	1645
61.96	1677
61.97	1674
61.98	1650
61.99	1649
62.0	1656
62.01	1680
62.02	1678
62.03	1638
62.04	1644
62.05	1625
62.06	1614
62.07	1623
62.08	1670
62.09	1663
62.1	1685
62.11	1654
62.12	1672
62.13	1642
62.14	1633
62.15	1652
62.16	1651
62.17	1670
62.18	1673
62.19	1641
62.2	1686
62.21	1660
62.22	1591
62.23	1628
62.24	1650
62.25	1634
62.26	1671
62.27	1672
62.28	1643
62.29	1609
62.3	1682
62.31	1703
62.32	1667
62.33	1689
62.34	1676
62.35	1631
62.36	1691
62.37	1714
62.38	1673
62.39	1662
62.4	1692
62.41	1683
62.42	1676
62.43	1666
62.44	1672
62.45	1636
62.46	1644
62.47	1687
62.48	1689
62.49	1633
62.5	1678
62.51	1673
62.52	1646
62.53	1644
62.54	1670
62.55	1676
62.56	1695
62.57	1677
62.58	1694
62.59	1652
62.6	1629
62.61	1658
62.62	1685
62.63	1686
62.64	1647
62.65	1657
62.66	1691
62.67	1685
62.68	1677
62.69	1680
62.7	1666
62.71	1723
62.72	1712
62.73	1703
62.74	1665
62.75	1667
62.76	1661
62.77	1694
62.78	1726
62.79	1699
62.8	1706
62.81	1670
62.82	1628
62.83	1641
62.84	1689
62.85	1680
62.86	1676
62.87	1733
62.88	1705
62.89	1675
62.9	1685
62.91	1692
62.92	1701
62.93	1651
62.94	1690
62.95	1684
62.96	1675
62.97	1682
62.98	1769
62.99	1735
63.0	1674
63.01	1673
63.02	1685
63.03	1690
63.04	1714
63.05	1720
63.06	1725
63.07	1711
63.08	1706
63.09	1690
63.1	1746
63.11	1698
63.12	1739
63.13	1642
63.14	1672
63.15	1674
63.16	1637
63.17	1658
63.18	1717
63.19	1690
63.2	1679
63.21	1653
63.22	1697
63.23	1693
63.24	1713
63.25	1730
63.26	1686
63.27	1650
63.28	1673
63.29	1699
63.3	1718
63.31	1691
63.32	1717
63.33	1719
63.34	1720
63.35	1711
63.36	1731
63.37	1739
63.38	1720
63.39	1722
63.4	1714
63.41	1742
63.42	1753
63.43	1709
63.44	1693
63.45	1677
63.46	1688
63.47	1695
63.48	1716
63.49	1702
63.5	1671
63.51	1660
63.52	1706
63.53	1744
63.54	1760
63.55	1719
63.56	1704
63.57	1732
63.58	1697
63.59	1668
63.6	1700
63.61	1699
63.62	1681
63.63	1688
63.64	1702
63.65	1692
63.66	1691
63.67	1669
63.68	1695
63.69	1750
63.7	1740
63.71	1692
63.72	1682
63.73	1702
63.74	1681
63.75	1762
63.76	1768
63.77	1685
63.78	1685
63.79	1700
63.8	1679
63.81	1667
63.82	1685
63.83	1661
63.84	1698
63.85	1715
63.86	1679
63.87	1702
63.88	1683
63.89	1682
63.9	1685
63.91	1685
63.92	1704
63.93	1705
63.94	1724
63.95	1717
63.96	1722
63.97	1713
63.98	1744
63.99	1737
64.0	1771
64.01	1725
64.02	1727
64.03	1720
64.04	1700
64.05	1674
64.06	1662
64.07	1709
64.08	1771
64.09	1764
64.1	1734
64.11	1744
64.12	1777
64.13	1806
64.14	1808
64.15	1839
64.16	1833
64.17	1795
64.18	1656
64.19	1739
64.2	1788
64.21	1831
64.22	1823
64.23	1825
64.24	1839
64.25	1839
64.26	1849
64.27	1853
64.28	1905
64.29	1873
64.3	1884
64.31	1931
64.32	1997
64.33	1999
64.34	1974
64.35	2037
64.36	2072
64.37	2153
64.38	2123
64.39	2150
64.4	2194
64.41	2250
64.42	2335
64.43	2396
64.44	2451
64.45	2459
64.46	2486
64.47	2637
64.48	2732
64.49	2855
64.5	2886
64.51	2952
64.52	3027
64.53	3105
64.54	3220
64.55	3394
64.56	3491
64.57	3672
64.58	3764
64.59	3812
64.6	3860
64.61	4009
64.62	4118
64.63	4110
64.64	4249
64.65	4177
64.66	4104
64.67	4241
64.68	4177
64.69	4086
64.7	4133
64.71	4087
64.72	4081
64.73	4088
64.74	4083
64.75	3984
64.76	3890
64.77	3824
64.78	3820
64.79	3729
64.8	3655
64.81	3560
64.82	3482
64.83	3516
64.84	3398
64.85	3380
64.86	3300
64.87	3206
64.88	3148
64.89	3053
64.9	2854
64.91	2820
64.92	2802
64.93	2747
64.94	2707
64.95	2648
64.96	2512
64.97	2460
64.98	2413
64.99	2342
65.0	2292
65.01	2266
65.02	2237
65.03	2256
65.04	2156
65.05	2173
65.06	2125
65.07	2110
65.08	2087
65.09	2056
65.1	1997
65.11	1995
65.12	1968
65.13	1951
65.14	1980
65.15	1959
65.16	1913
65.17	1878
65.18	1913
65.19	1911
65.2	1900
65.21	1911
65.22	1919
65.23	1878
65.24	1922
65.25	1961
65.26	1901
65.27	1869
65.28	1893
65.29	1910
65.3	1917
65.31	1928
65.32	1917
65.33	1911
65.34	1967
65.35	1972
65.36	1985
65.37	2059
65.38	2026
65.39	2057
65.4	2048
65.41	2132
65.42	2134
65.43	2223
65.44	2261
65.45	2320
65.46	2375
65.47	2442
65.48	2530
65.49	2662
65.5	2674
65.51	2797
65.52	2935
65.53	3115
65.54	3248
65.55	3391
65.56	3589
65.57	3763
65.58	3909
65.59	4078
65.6	4214
65.61	4347
65.62	4465
65.63	4634
65.64	4829
65.65	4809
65.66	4659
65.67	4729
65.68	4650
65.69	4593
65.7	4445
65.71	4355
65.72	4276
65.73	4160
65.74	4092
65.75	4024
65.76	3917
65.77	3860
65.78	3862
65.79	3772
65.8	3706
65.81	3636
65.82	3648
65.83	3578
65.84	3503
65.85	3443
65.86	3312
65.87	3319
65.88	3205
65.89	3064
65.9	2973
65.91	2825
65.92	2742
65.93	2622
65.94	2578
65.95	2450
65.96	2274
65.97	2133
65.98	2149
65.99	2206
66.0	2161
66.01	2092
66.02	2000
66.03	1981
66.04	1954
66.05	1975
66.06	1943
66.07	1955
66.08	1909
66.09	1884
66.1	1861
66.11	1839
66.12	1799
66.13	1788
66.14	1810
66.15	1776
66.16	1778
66.17	1788
66.18	1814
66.19	1784
66.2	1804
66.21	1859
66.22	1775
66.23	1719
66.24	1765
66.25	1762
66.26	1730
66.27	1657
66.28	1669
66.29	1724
66.3	1714
66.31	1684
66.32	1675
66.33	1716
66.34	1654
66.35	1709
66.36	1667
66.37	1683
66.38	1699
66.39	1743
66.4	1712
66.41	1649
66.42	1695
66.43	1672
66.44	1689
66.45	1668
66.46	1652
66.47	1663
66.48	1686
66.49	1670
66.5	1648
66.51	1656
66.52	1714
66.53	1695
66.54	1673
66.55	1680
66.56	1681
66.57	1662
66.58	1690
66.59	1664
66.6	1705
66.61	1736
66.62	1704
66.63	1672
66.64	1736
66.65	1739
66.66	1732
66.67	1688
66.68	1678
66.69	1640
66.7	1642
66.71	1696
66.72	1757
66.73	1635
66.74	1644
66.75	1671
66.76	1652
66.77	1635
66.78	1686
66.79	1687
66.8	1686
66.81	1663
66.82	1701
66.83	1711
66.84	1681
66.85	1730
66.86	1700
66.87	1708
66.88	1685
66.89	1677
66.9	1698
66.91	1691
66.92	1727
66.93	1726
66.94	1644
66.95	1729
66.96	1685
66.97	1723
66.98	1703
66.99	1683
67.0	1674
67.01	1650
67.02	1638
67.03	1662
67.04	1725
67.05	1734
67.06	1711
67.07	1664
67.08	1715
67.09	1725
67.1	1681
67.11	1675
67.12	1626
67.13	1714
67.14	1679
67.15	1687
67.16	1750
67.17	1716
67.18	1642
67.19	1664
67.2	1669
67.21	1676
67.22	1706
67.23	1677
67.24	1656
67.25	1654
67.26	1668
67.27	1679
67.28	1721
67.29	1717
67.3	1663
67.31	1634
67.32	1627
67.33	1674
67.34	1667
67.35	1621
67.36	1675
67.37	1704
67.38	1691
67.39	1648
67.4	1669
67.41	1679
67.42	1651
67.43	1651
67.44	1655
67.45	1640
67.46	1614
67.47	1620
67.48	1605
67.49	1640
67.5	1669
67.51	1690
67.52	1677
67.53	1679
67.54	1675
67.55	1727
67.56	1711
67.57	1635
67.58	1641
67.59	1671
67.6	1654
67.61	1712
67.62	1673
67.63	1659
67.64	1696
67.65	1724
67.66	1696
67.67	1659
67.68	1634
67.69	1627
67.7	1725
67.71	1795
67.72	1735
67.73	1609
67.74	1641
67.75	1657
67.76	1690
67.77	1639
67.78	1654
67.79	1694
67.8	1698
67.81	1675
67.82	1636
67.83	1640
67.84	1639
67.85	1685
67.86	1708
67.87	1653
67.88	1615
67.89	1650
67.9	1675
67.91	1673
67.92	1642
67.93	1649
67.94	1681
67.95	1693
67.96	1649
67.97	1635
67.98	1672
67.99	1672
68.0	1665
68.01	1635
68.02	1696
68.03	1656
68.04	1695
68.05	1665
68.06	1657
68.07	1660
68.08	1649
68.09	1717
68.1	1709
68.11	1710
68.12	1722
68.13	1667
68.14	1676
68.15	1692
68.16	1671
68.17	1664
68.18	1662
68.19	1682
68.2	1684
68.21	1713
68.22	1717
68.23	1747
68.24	1667
68.25	1707
68.26	1707
68.27	1674
68.28	1630
68.29	1631
68.3	1646
68.31	1636
68.32	1676
68.33	1690
68.34	1706
68.35	1715
68.36	1675
68.37	1725
68.38	1714
68.39	1674
68.4	1662
68.41	1664
68.42	1698
68.43	1677
68.44	1669
68.45	1684
68.46	1727
68.47	1745
68.48	1755
68.49	1718
68.5	1713
68.51	1711
68.52	1701
68.53	1741
68.54	1729
68.55	1738
68.56	1776
68.57	1845
68.58	1785
68.59	1781
68.6	1764
68.61	1828
68.62	1824
68.63	1832
68.64	1843
68.65	1860
68.66	1912
68.67	1891
68.68	1958
68.69	1984
68.7	1955
68.71	1977
68.72	1955
68.73	2044
68.74	2086
68.75	2150
68.76	2229
68.77	2196
68.78	2226
68.79	2268
68.8	2332
68.81	2408
68.82	2512
68.83	2457
68.84	2578
68.85	2708
68.86	2723
68.87	2796
68.88	2841
68.89	2842
68.9	2932
68.91	2943
68.92	2968
68.93	2975
68.94	2993
68.95	2998
68.96	2952
68.97	3015
68.98	2966
68.99	2960
69.0	2910
69.01	2831
69.02	2815
69.03	2775
69.04	2740
69.05	2813
69.06	2755
69.07	2723
69.08	2671
69.09	2631
69.1	2580
69.11	2573
69.12	2566
69.13	2534
69.14	2445
69.15	2434
69.16	2380
69.17	2353
69.18	2318
69.19	2245
69.2	2248
69.21	2200
69.22	2174
69.23	2092
69.24	2098
69.25	2070
69.26	2014
69.27	1991
69.28	1979
69.29	1954
69.3	1938
69.31	1998
69.32	1893
69.33	1853
69.34	1792
69.35	1822
69.36	1842
69.37	1776
69.38	1764
69.39	1797
69.4	1799
69.41	1753
69.42	1750
69.43	1741
69.44	1743
69.45	1741
69.46	1733
69.47	1756
69.48	1736
69.49	1702
69.5	1704
69.51	1719
69.52	1703
69.53	1688
69.54	1676
69.55	1707
69.56	1700
69.57	1702
69.58	1671
69.59	1696
69.6	1701
69.61	1706
69.62	1629
69.63	1659
69.64	1717
69.65	1665
69.66	1630
69.67	1686
69.68	1725
69.69	1730
69.7	1715
69.71	1684
69.72	1615
69.73	1622
69.74	1644
69.75	1669
69.76	1713
69.77	1690
69.78	1659
69.79	1670
69.8	1685
69.81	1711
69.82	1720
69.83	1670
69.84	1644
69.85	1660
69.86	1682
69.87	1641
69.88	1670
69.89	1645
69.9	1626
69.91	1645
69.92	1667
69.93	1663
69.94	1612
69.95	1643
69.96	1673
69.97	1665
69.98	1656
69.99	1629
70.0	1620
70.01	1679
70.02	1680
70.03	1693
70.04	1731
70.05	1721
70.06	1681
70.07	1675
70.08	1682
70.09	1665
70.1	1647
70.11	1664
70.12	1672
70.13	1713
70.14	1691
70.15	1664
70.16	1580
70.17	1611
70.18	1668
70.19	1682
70.2	1698
70.21	1638
70.22	1608
70.23	1642
70.24	1692
70.25	1690
70.26	1635
70.27	1612
70.28	1630
70.29	1671
70.3	1645
70.31	1678
70.32	1668
70.33	1653
70.34	1633
70.35	1655
70.36	1639
70.37	1690
70.38	1664
70.39	1606
70.4	1596
70.41	1659
70.42	1696
70.43	1674
70.44	1648
70.45	1665
70.46	1665
70.47	1640
70.48	1599
70.49	1602
70.5	1607
70.51	1609
70.52	1712
70.53	1689
70.54	1648
70.55	1655
70.56	1682
70.57	1677
70.58	1741
70.59	1667
70.6	1641
70.61	1636
70.62	1681
70.63	1695
70.64	1675
70.65	1661
70.66	1643
70.67	1672
70.68	1654
70.69	1651
70.7	1702
70.71	1659
70.72	1658
70.73	1617
70.74	1640
70.75	1670
70.76	1694
70.77	1690
70.78	1681
70.79	1698
70.8	1645
70.81	1636
70.82	1642
70.83	1614
70.84	1672
70.85	1703
70.86	1671
70.87	1660
70.88	1626
70.89	1634
70.9	1662
70.91	1717
70.92	1641
70.93	1695
70.94	1676
70.95	1652
70.96	1690
70.97	1697
70.98	1662
70.99	1653
71.0	1595
71.01	1606
71.02	1677
71.03	1677
71.04	1693
71.05	1678
71.06	1654
71.07	1672
71.08	1663
71.09	1685
71.1	1677
71.11	1658
71.12	1640
71.13	1657
71.14	1641
71.15	1603
71.16	1686
71.17	1674
71.18	1671
71.19	1610
71.2	1651
71.21	1680
71.22	1646
71.23	1658
71.24	1611
71.25	1587
71.26	1610
71.27	1637
71.28	1626
71.29	1636
71.3	1646
71.31	1684
71.32	1670
71.33	1614
71.34	1632
71.35	1628
71.36	1654
71.37	1701
71.38	1694
71.39	1651
71.4	1700
71.41	1711
71.42	1681
71.43	1654
71.44	1658
71.45	1618
71.46	1609
71.47	1649
71.48	1640
71.49	1646
71.5	1668
71.51	1661
71.52	1631
71.53	1672
71.54	1576
71.55	1572
71.56	1660
71.57	1666
71.58	1613
71.59	1616
71.6	1579
71.61	1608
71.62	1584
71.63	1660
71.64	1649
71.65	1627
71.66	1639
71.67	1633
71.68	1647
71.69	1671
71.7	1619
71.71	1590
71.72	1615
71.73	1598
71.74	1642
71.75	1615
71.76	1636
71.77	1650
71.78	1690
71.79	1664
71.8	1654
71.81	1593
71.82	1644
71.83	1669
71.84	1660
71.85	1659
71.86	1633
71.87	1638
71.88	1645
71.89	1639
71.9	1635
71.91	1645
71.92	1686
71.93	1700
71.94	1667
71.95	1673
71.96	1673
71.97	1679
71.98	1697
71.99	1683
72.0	1659
72.01	1600
72.02	1605
72.03	1601
72.04	1554
72.05	1644
72.06	1576
72.07	1568
72.08	1612
72.09	1613
72.1	1637
72.11	1630
72.12	1582
72.13	1587
72.14	1644
72.15	1646
72.16	1631
72.17	1656
72.18	1633
72.19	1641
72.2	1642
72.21	1666
72.22	1663
72.23	1623
72.24	1629
72.25	1661
72.26	1643
72.27	1620
72.28	1641
72.29	1659
72.3	1681
72.31	1652
72.32	1624
72.33	1674
72.34	1699
72.35	1688
72.36	1686
72.37	1660
72.38	1652
72.39	1657
72.4	1651
72.41	1659
72.42	1655
72.43	1599
72.44	1625
72.45	1626
72.46	1663
72.47	1654
72.48	1662
72.49	1661
72.5	1618
72.51	1587
72.52	1583
72.53	1625
72.54	1611
72.55	1642
72.56	1671
72.57	1670
72.58	1674
72.59	1656
72.6	1652
72.61	1621
72.62	1597
72.63	1652
72.64	1639
72.65	1624
72.66	1602
72.67	1658
72.68	1600
72.69	1611
72.7	1652
72.71	1711
72.72	1648
72.73	1633
72.74	1620
72.75	1631
72.76	1667
72.77	1710
72.78	1685
72.79	1629
72.8	1588
72.81	1647
72.82	1678
72.83	1656
72.84	1642
72.85	1641
72.86	1603
72.87	1597
72.88	1622
72.89	1633
72.9	1639
72.91	1660
72.92	1657
72.93	1630
72.94	1645
72.95	1643
72.96	1625
72.97	1663
72.98	1668
72.99	1647
73.0	1617
73.01	1618
73.02	1629
73.03	1624
73.04	1671
73.05	1653
73.06	1621
73.07	1628
73.08	1716
73.09	1604
73.1	1598
73.11	1635
73.12	1606
73.13	1639
73.14	1606
73.15	1607
73.16	1579
73.17	1603
73.18	1650
73.19	1614
73.2	1573
73.21	1587
73.22	1618
73.23	1630
73.24	1641
73.25	1643
73.26	1653
73.27	1634
73.28	1613
73.29	1608
73.3	1650
73.31	1603
73.32	1656
73.33	1600
73.34	1618
73.35	1651
73.36	1649
73.37	1668
73.38	1656
73.39	1627
73.4	1585
73.41	1561
73.42	1621
73.43	1601
73.44	1632
73.45	1627
73.46	1650
73.47	1631
73.48	1635
73.49	1603
73.5	1620
73.51	1573
73.52	1615
73.53	1655
73.54	1643
73.55	1642
73.56	1642
73.57	1618
73.58	1635
73.59	1651
73.6	1624
73.61	1619
73.62	1573
73.63	1580
73.64	1626
73.65	1651
73.66	1624
73.67	1645
73.68	1607
73.69	1609
73.7	1589
73.71	1592
73.72	1627
73.73	1672
73.74	1635
73.75	1634
73.76	1635
73.77	1635
73.78	1650
73.79	1667
73.8	1674
73.81	1647
73.82	1616
73.83	1635
73.84	1643
73.85	1660
73.86	1640
73.87	1628
73.88	1695
73.89	1691
73.9	1634
73.91	1629
73.92	1646
73.93	1673
73.94	1643
73.95	1687
73.96	1633
73.97	1647
73.98	1682
73.99	1699
74.0	1642
74.01	1649
74.02	1649
74.03	1632
74.04	1634
74.05	1614
74.06	1654
74.07	1693
74.08	1687
74.09	1705
74.1	1657
74.11	1648
74.12	1629
74.13	1668
74.14	1627
74.15	1628
74.16	1618
74.17	1625
74.18	1619
74.19	1639
74.2	1648
74.21	1618
74.22	1621
74.23	1618
74.24	1643
74.25	1616
74.26	1632
74.27	1639
74.28	1610
74.29	1615
74.3	1604
74.31	1591
74.32	1661
74.33	1659
74.34	1674
74.35	1704
74.36	1618
74.37	1640
74.38	1657
74.39	1641
74.4	1656
74.41	1631
74.42	1623
74.43	1627
74.44	1632
74.45	1700
74.46	1697
74.47	1661
74.48	1641
74.49	1612
74.5	1634
74.51	1670
74.52	1647
74.53	1634
74.54	1653
74.55	1657
74.56	1609
74.57	1599
74.58	1623
74.59	1642
74.6	1616
74.61	1594
74.62	1629
74.63	1704
74.64	1646
74.65	1631
74.66	1636
74.67	1618
74.68	1610
74.69	1652
74.7	1673
74.71	1663
74.72	1613
74.73	1630
74.74	1612
74.75	1599
74.76	1671
74.77	1722
74.78	1691
74.79	1648
74.8	1681
74.81	1639
74.82	1624
74.83	1617
74.84	1650
74.85	1610
74.86	1647
74.87	1657
74.88	1622
74.89	1655
74.9	1669
74.91	1684
74.92	1682
74.93	1685
74.94	1636
74.95	1648
74.96	1713
74.97	1692
74.98	1659
74.99	1623
75.0	1617
75.01	1619
75.02	1648
75.03	1666
75.04	1652
75.05	1648
75.06	1628
75.07	1623
75.08	1631
75.09	1591
75.1	1580
75.11	1622
75.12	1647
75.13	1704
75.14	1663
75.15	1635
75.16	1627
75.17	1655
75.18	1679
75.19	1638
75.2	1647
75.21	1643
75.22	1661
75.23	1613
75.24	1601
75.25	1644
75.26	1670
75.27	1666
75.28	1665
75.29	1662
75.3	1645
75.31	1681
75.32	1648
75.33	1636
75.34	1629
75.35	1564
75.36	1587
75.37	1643
75.38	1693
75.39	1654
75.4	1610
75.41	1658
75.42	1668
75.43	1645
75.44	1635
75.45	1647
75.46	1649
75.47	1629
75.48	1659
75.49	1628
75.5	1624
75.51	1648
75.52	1619
75.53	1622
75.54	1640
75.55	1641
75.56	1677
75.57	1700
75.58	1682
75.59	1608
75.6	1637
75.61	1640
75.62	1613
75.63	1634
75.64	1690
75.65	1679
75.66	1665
75.67	1649
75.68	1628
75.69	1619
75.7	1640
75.71	1639
75.72	1633
75.73	1630
75.74	1648
75.75	1670
75.76	1638
75.77	1641
75.78	1643
75.79	1683
75.8	1678
75.81	1660
75.82	1692
75.83	1676
75.84	1635
75.85	1662
75.86	1629
75.87	1616
75.88	1618
75.89	1632
75.9	1650
75.91	1672
75.92	1673
75.93	1651
75.94	1638
75.95	1621
75.96	1612
75.97	1625
75.98	1615
75.99	1614
76.0	1640
76.01	1638
76.02	1648
76.03	1590
76.04	1642
76.05	1635
76.06	1641
76.07	1638
76.08	1669
76.09	1650
76.1	1628
76.11	1639
76.12	1609
76.13	1609
76.14	1639
76.15	1660
76.16	1649
76.17	1635
76.18	1639
76.19	1630
76.2	1632
76.21	1598
76.22	1629
76.23	1640
76.24	1662
76.25	1635
76.26	1575
76.27	1642
76.28	1617
76.29	1639
76.3	1592
76.31	1633
76.32	1618
76.33	1597
76.34	1641
76.35	1672
76.36	1659
76.37	1675
76.38	1666
76.39	1645
76.4	1638
76.41	1639
76.42	1651
76.43	1686
76.44	1658
76.45	1638
76.46	1583
76.47	1595
76.48	1619
76.49	1638
76.5	1667
76.51	1612
76.52	1601
76.53	1645
76.54	1620
76.55	1668
76.56	1655
76.57	1601
76.58	1615
76.59	1621
76.6	1615
76.61	1608
76.62	1607
76.63	1632
76.64	1646
76.65	1653
76.66	1657
76.67	1631
76.68	1639
76.69	1656
76.7	1603
76.71	1615
76.72	1596
76.73	1629
76.74	1611
76.75	1584
76.76	1645
76.77	1733
76.78	1679
76.79	1609
76.8	1597
76.81	1648
76.82	1662
76.83	1671
76.84	1653
76.85	1610
76.86	1668
76.87	1662
76.88	1655
76.89	1646
76.9	1656
76.91	1629
76.92	1634
76.93	1663
76.94	1626
76.95	1618
76.96	1645
76.97	1607
76.98	1601
76.99	1605
77.0	1599
77.01	1606
77.02	1606
77.03	1645
77.04	1698
77.05	1683
77.06	1658
77.07	1702
77.08	1621
77.09	1671
77.1	1709
77.11	1706
77.12	1729
77.13	1654
77.14	1645
77.15	1679
77.16	1665
77.17	1669
77.18	1669
77.19	1636
77.2	1692
77.21	1712
77.22	1704
77.23	1713
77.24	1740
77.25	1725
77.26	1734
77.27	1722
77.28	1699
77.29	1658
77.3	1680
77.31	1707
77.32	1717
77.33	1699
77.34	1700
77.35	1688
77.36	1718
77.37	1744
77.38	1739
77.39	1776
77.4	1762
77.41	1734
77.42	1777
77.43	1809
77.44	1805
77.45	1777
77.46	1753
77.47	1808
77.48	1788
77.49	1814
77.5	1808
77.51	1815
77.52	1813
77.53	1798
77.54	1797
77.55	1834
77.56	1862
77.57	1829
77.58	1822
77.59	1830
77.6	1864
77.61	1832
77.62	1812
77.63	1834
77.64	1824
77.65	1856
77.66	1888
77.67	1912
77.68	1878
77.69	1861
77.7	1865
77.71	1880
77.72	1920
77.73	1948
77.74	1969
77.75	2066
77.76	2061
77.77	2062
77.78	2094
77.79	2063
77.8	2066
77.81	2057
77.82	2027
77.83	2032
77.84	2053
77.85	2069
77.86	2060
77.87	2043
77.88	2030
77.89	1949
77.9	2002
77.91	1988
77.92	1997
77.93	1956
77.94	1886
77.95	1864
77.96	1935
77.97	1963
77.98	1913
77.99	1916
78.0	1908
78.01	1917
78.02	1929
78.03	1905
78.04	1937
78.05	1934
78.06	1850
78.07	1894
78.08	1880
78.09	1915
78.1	1895
78.11	1888
78.12	1842
78.13	1871
78.14	1889
78.15	1854
78.16	1853
78.17	1866
78.18	1875
78.19	1834
78.2	1779
78.21	1824
78.22	1843
78.23	1845
78.24	1830
78.25	1824
78.26	1819
78.27	1861
78.28	1861
78.29	1844
78.3	1859
78.31	1892
78.32	1906
78.33	1900
78.34	1891
78.35	1853
78.36	1825
78.37	1816
78.38	1839
78.39	1875
78.4	1917
78.41	1894
78.42	1887
78.43	1920
78.44	1890
78.45	1879
78.46	1890
78.47	1891
78.48	1864
78.49	1857
78.5	1883
78.51	1864
78.52	1866
78.53	1841
78.54	1848
78.55	1845
78.56	1866
78.57	1875
78.58	1868
78.59	1813
78.6	1834
78.61	1841
78.62	1847
78.63	1847
78.64	1849
78.65	1776
78.66	1798
78.67	1821
78.68	1831
78.69	1869
78.7	1808
78.71	1782
78.72	1809
78.73	1825
78.74	1862
78.75	1818
78.76	1855
78.77	1828
78.78	1825
78.79	1854
78.8	1805
78.81	1794
78.82	1818
78.83	1848
78.84	1816
78.85	1829
78.86	1850
78.87	1799
78.88	1769
78.89	1773
78.9	1775
78.91	1832
78.92	1810
78.93	1774
78.94	1796
78.95	1783
78.96	1755
78.97	1758
78.98	1758
78.99	1746
79.0	1801
79.01	1733
79.02	1723
79.03	1724
79.04	1701
79.05	1736
79.06	1737
79.07	1722
79.08	1695
79.09	1656
79.1	1721
79.11	1716
79.12	1713
79.13	1719
79.14	1691
79.15	1711
79.16	1749
79.17	1647
79.18	1615
79.19	1623
79.2	1648
79.21	1693
79.22	1678
79.23	1647
79.24	1694
79.25	1664
79.26	1661
79.27	1686
79.28	1687
79.29	1672
79.3	1625
79.31	1626
79.32	1621
79.33	1659
79.34	1662
79.35	1659
79.36	1654
79.37	1670
79.38	1632
79.39	1598
79.4	1620
79.41	1633
79.42	1649
79.43	1645
79.44	1615
79.45	1652
79.46	1621
79.47	1653
79.48	1608
79.49	1607
79.5	1601
79.51	1585
79.52	1588
79.53	1634
79.54	1724
79.55	1664
79.56	1628
79.57	1638
79.58	1612
79.59	1626
79.6	1595
79.61	1602
79.62	1627
79.63	1608
79.64	1594
79.65	1586
79.66	1592
79.67	1650
79.68	1661
79.69	1684
79.7	1649
79.71	1630
79.72	1670
79.73	1642
79.74	1634
79.75	1672
79.76	1656
79.77	1630
79.78	1622
79.79	1574
79.8	1601
79.81	1632
79.82	1603
79.83	1586
79.84	1641
79.85	1644
79.86	1640
79.87	1657
79.88	1664
79.89	1662
79.9	1660
79.91	1592
79.92	1632
79.93	1647
79.94	1653
79.95	1679
79.96	1681
79.97	1648
79.98	1592
79.99	1576
80.0	1566
80.01	1644
80.02	1623
80.03	1656
80.04	1637
80.05	1662
80.06	1637
80.07	1582
80.08	1600
80.09	1585
80.1	1638
80.11	1639
80.12	1631
80.13	1664
80.14	1637
80.15	1626
80.16	1620
80.17	1615
80.18	1614
80.19	1649
80.2	1655
80.21	1580
80.22	1586
80.23	1636
80.24	1671
80.25	1687
80.26	1629
80.27	1598
80.28	1635
80.29	1628
80.3	1607
80.31	1654
80.32	1656
80.33	1629
80.34	1687
80.35	1688
80.36	1620
80.37	1664
80.38	1666
80.39	1640
80.4	1621
80.41	1652
80.42	1634
80.43	1636
80.44	1690
80.45	1708
80.46	1667
80.47	1627
80.48	1637
80.49	1640
80.5	1584
80.51	1609
80.52	1593
80.53	1616
80.54	1629
80.55	1687
80.56	1715
80.57	1648
80.58	1642
80.59	1683
80.6	1706
80.61	1701
80.62	1691
80.63	1617
80.64	1617
80.65	1628
80.66	1697
80.67	1682
80.68	1687
80.69	1697
80.7	1650
80.71	1676
80.72	1698
80.73	1691
80.74	1677
80.75	1660
80.76	1692
80.77	1650
80.78	1651
80.79	1701
80.8	1685
80.81	1715
80.82	1713
80.83	1741
80.84	1723
80.85	1711
80.86	1723
80.87	1698
80.88	1701
80.89	1728
80.9	1707
80.91	1752
80.92	1792
80.93	1780
80.94	1781
80.95	1816
80.96	1824
80.97	1875
80.98	1849
80.99	1856
81.0	1883
81.01	1864
81.02	1870
81.03	1897
81.04	1945
81.05	1964
81.06	1983
81.07	2022
81.08	2074
81.09	2043
81.1	2019
81.11	2071
81.12	2064
81.13	2096
81.14	2044
81.15	2013
81.16	2047
81.17	2047
81.18	2011
81.19	2022
81.2	2029
81.21	1998
81.22	2026
81.23	2042
81.24	1989
81.25	1930
81.26	1969
81.27	1947
81.28	1989
81.29	1958
81.3	1968
81.31	1997
81.32	2008
81.33	1979
81.34	1971
81.35	1984
81.36	2046
81.37	1999
81.38	1979
81.39	1997
81.4	1971
81.41	1933
81.42	1905
81.43	1935
81.44	1988
81.45	1982
81.46	1930
81.47	1885
81.48	1872
81.49	1882
81.5	1857
81.51	1895
81.52	1870
81.53	1832
81.54	1870
81.55	1834
81.56	1830
81.57	1820
81.58	1761
81.59	1801
81.6	1779
81.61	1773
81.62	1805
81.63	1826
81.64	1831
81.65	1864
81.66	1813
81.67	1790
81.68	1777
81.69	1780
81.7	1828
81.71	1776
81.72	1828
81.73	1821
81.74	1807
81.75	1831
81.76	1780
81.77	1732
81.78	1744
81.79	1749
81.8	1723
81.81	1775
81.82	1822
81.83	1824
81.84	1847
81.85	1796
81.86	1720
81.87	1757
81.88	1759
81.89	1733
81.9	1726
81.91	1731
81.92	1785
81.93	1762
81.94	1722
81.95	1765
81.96	1776
81.97	1715
81.98	1729
81.99	1736
82.0	1747
82.01	1716
82.02	1679
82.03	1715
82.04	1740
82.05	1699
82.06	1711
82.07	1749
82.08	1745
82.09	1772
82.1	1779
82.11	1763
82.12	1705
82.13	1697
82.14	1703
82.15	1659
82.16	1686
82.17	1711
82.18	1727
82.19	1701
82.2	1775
82.21	1775
82.22	1739
82.23	1705
82.24	1683
82.25	1679
82.26	1725
82.27	1752
82.28	1731
82.29	1710
82.3	1731
82.31	1751
82.32	1770
82.33	1811
82.34	1763
82.35	1707
82.36	1794
82.37	1791
82.38	1733
82.39	1775
82.4	1754
82.41	1756
82.42	1759
82.43	1752
82.44	1754
82.45	1772
82.46	1798
82.47	1801
82.48	1754
82.49	1736
82.5	1722
82.51	1755
82.52	1775
82.53	1754
82.54	1802
82.55	1859
82.56	1849
82.57	1857
82.58	1851
82.59	1887
82.6	1859
82.61	1841
82.62	1868
82.63	1860
82.64	1867
82.65	1850
82.66	1863
82.67	1896
82.68	1908
82.69	1924
82.7	1967
82.71	2041
82.72	2021
82.73	2028
82.74	2039
82.75	2078
82.76	2169
82.77	2194
82.78	2217
82.79	2250
82.8	2261
82.81	2279
82.82	2292
82.83	2370
82.84	2450
82.85	2521
82.86	2539
82.87	2580
82.88	2608
82.89	2603
82.9	2617
82.91	2627
82.92	2692
82.93	2716
82.94	2678
82.95	2627
82.96	2587
82.97	2607
82.98	2625
82.99	2598
83.0	2622
83.01	2537
83.02	2573
83.03	2563
83.04	2516
83.05	2495
83.06	2441
83.07	2473
83.08	2411
83.09	2351
83.1	2402
83.11	2434
83.12	2401
83.13	2404
83.14	2379
83.15	2352
83.16	2351
83.17	2374
83.18	2379
83.19	2339
83.2	2309
83.21	2270
83.22	2164
83.23	2186
83.24	2194
83.25	2144
83.26	2103
83.27	2174
83.28	2134
83.29	2080
83.3	2029
83.31	2071
83.32	2076
83.33	2021
83.34	1918
83.35	1932
83.36	1943
83.37	1903
83.38	1840
83.39	1829
83.4	1840
83.41	1871
83.42	1822
83.43	1815
83.44	1801
83.45	1790
83.46	1823
83.47	1787
83.48	1818
83.49	1827
83.5	1771
83.51	1785
83.52	1781
83.53	1728
83.54	1686
83.55	1716
83.56	1734
83.57	1726
83.58	1758
83.59	1752
83.6	1751
83.61	1737
83.62	1719
83.63	1703
83.64	1713
83.65	1753
83.66	1720
83.67	1673
83.68	1685
83.69	1673
83.7	1678
83.71	1690
83.72	1698
83.73	1669
83.74	1704
83.75	1702
83.76	1661
83.77	1648
83.78	1686
83.79	1707
83.8	1706
83.81	1666
83.82	1648
83.83	1667
83.84	1733
83.85	1723
83.86	1723
83.87	1700
83.88	1677
83.89	1706
83.9	1692
83.91	1657
83.92	1683
83.93	1707
83.94	1723
83.95	1697
83.96	1669
83.97	1670
83.98	1701
83.99	1710
84.0	1691
84.01	1724
84.02	1699
84.03	1733
84.04	1728
84.05	1726
84.06	1751
84.07	1744
84.08	1719
84.09	1700
84.1	1714
84.11	1694
84.12	1716
84.13	1746
84.14	1753
84.15	1726
84.16	1722
84.17	1728
84.18	1699
84.19	1675
84.2	1672
84.21	1689
84.22	1729
84.23	1690
84.24	1699
84.25	1728
84.26	1721
84.27	1688
84.28	1748
84.29	1779
84.3	1765
84.31	1802
84.32	1766
84.33	1760
84.34	1796
84.35	1822
84.36	1824
84.37	1784
84.38	1817
84.39	1860
84.4	1852
84.41	1835
84.42	1853
84.43	1869
84.44	1891
84.45	1922
84.46	1946
84.47	1975
84.48	2006
84.49	1971
84.5	1988
84.51	2002
84.52	1988
84.53	1978
84.54	2042
84.55	2085
84.56	2052
84.57	2106
84.58	2110
84.59	2097
84.6	2065
84.61	2089
84.62	2091
84.63	2041
84.64	2046
84.65	2079
84.66	2093
84.67	2084
84.68	2069
84.69	2020
84.7	2004
84.71	2006
84.72	2001
84.73	2045
84.74	2067
84.75	2020
84.76	1980
84.77	1952
84.78	1990
84.79	2037
84.8	2038
84.81	1983
84.82	1969
84.83	2014
84.84	1977
84.85	1970
84.86	2007
84.87	1970
84.88	1962
84.89	1888
84.9	1906
84.91	1881
84.92	1918
84.93	1860
84.94	1821
84.95	1788
84.96	1826
84.97	1855
84.98	1869
84.99	1847
85.0	1839
85.01	1836
85.02	1817
85.03	1806
85.04	1814
85.05	1771
85.06	1758
85.07	1756
85.08	1725
85.09	1724
85.1	1751
85.11	1741
85.12	1751
85.13	1757
85.14	1773
85.15	1755
85.16	1697
85.17	1702
85.18	1706
85.19	1657
85.2	1695
85.21	1736
85.22	1733
85.23	1744
85.24	1734
85.25	1705
85.26	1704
85.27	1708
85.28	1691
85.29	1707
85.3	1726
85.31	1754
85.32	1728
85.33	1718
85.34	1732
85.35	1707
85.36	1734
85.37	1698
85.38	1662
85.39	1660
85.4	1632
85.41	1650
85.42	1676
85.43	1663
85.44	1677
85.45	1671
85.46	1680
85.47	1699
85.48	1710
85.49	1687
85.5	1665
85.51	1682
85.52	1685
85.53	1680
85.54	1676
85.55	1709
85.56	1698
85.57	1711
85.58	1707
85.59	1714
85.6	1717
85.61	1671
85.62	1661
85.63	1677
85.64	1706
85.65	1697
85.66	1730
85.67	1688
85.68	1665
85.69	1717
85.7	1738
85.71	1724
85.72	1719
85.73	1712
85.74	1753
85.75	1786
85.76	1711
85.77	1740
85.78	1720
85.79	1685
85.8	1660
85.81	1713
85.82	1749
85.83	1750
85.84	1737
85.85	1743
85.86	1747
85.87	1746
85.88	1779
85.89	1805
85.9	1779
85.91	1764
85.92	1771
85.93	1781
85.94	1747
85.95	1769
85.96	1797
85.97	1805
85.98	1754
85.99	1765
86.0	1815
86.01	1814
86.02	1807
86.03	1829
86.04	1821
86.05	1765
86.06	1808
86.07	1814
86.08	1787
86.09	1758
86.1	1762
86.11	1788
86.12	1784
86.13	1763
86.14	1759
86.15	1765
86.16	1778
86.17	1743
86.18	1727
86.19	1715
86.2	1724
86.21	1720
86.22	1748
86.23	1733
86.24	1747
86.25	1736
86.26	1741
86.27	1746
86.28	1716
86.29	1709
86.3	1739
86.31	1736
86.32	1710
86.33	1730
86.34	1743
86.35	1695
86.36	1687
86.37	1705
86.38	1729
86.39	1704
86.4	1719
86.41	1726
86.42	1710
86.43	1708
86.44	1704
86.45	1670
86.46	1606
86.47	1667
86.48	1709
86.49	1718
86.5	1690
86.51	1670
86.52	1648
86.53	1619
86.54	1619
86.55	1661
86.56	1682
86.57	1669
86.58	1647
86.59	1655
86.6	1698
86.61	1719
86.62	1692
86.63	1688
86.64	1689
86.65	1676
86.66	1677
86.67	1656
86.68	1668
86.69	1650
86.7	1650
86.71	1673
86.72	1684
86.73	1694
86.74	1637
86.75	1653
86.76	1694
86.77	1676
86.78	1643
86.79	1636
86.8	1664
86.81	1638
86.82	1674
86.83	1654
86.84	1651
86.85	1647
86.86	1631
86.87	1613
86.88	1653
86.89	1658
86.9	1636
86.91	1633
86.92	1629
86.93	1662
86.94	1674
86.95	1654
86.96	1662
86.97	1641
86.98	1634
86.99	1646
87.0	1618
87.01	1629
87.02	1633
87.03	1661
87.04	1642
87.05	1616
87.06	1609
87.07	1676
87.08	1663
87.09	1633
87.1	1626
87.11	1640
87.12	1651
87.13	1633
87.14	1686
87.15	1684
87.16	1696
87.17	1681
87.18	1671
87.19	1636
87.2	1650
87.21	1635
87.22	1628
87.23	1650
87.24	1680
87.25	1673
87.26	1651
87.27	1641
87.28	1623
87.29	1657
87.3	1627
87.31	1592
87.32	1631
87.33	1661
87.34	1685
87.35	1659
87.36	1602
87.37	1604
87.38	1653
87.39	1658
87.4	1658
87.41	1656
87.42	1655
87.43	1623
87.44	1626
87.45	1658
87.46	1639
87.47	1632
87.48	1634
87.49	1640
87.5	1620
87.51	1617
87.52	1661
87.53	1656
87.54	1634
87.55	1609
87.56	1595
87.57	1594
87.58	1605
87.59	1654
87.6	1692
87.61	1685
87.62	1666
87.63	1673
87.64	1641
87.65	1620
87.66	1630
87.67	1630
87.68	1597
87.69	1598
87.7	1648
87.71	1668
87.72	1671
87.73	1646
87.74	1611
87.75	1634
87.76	1647
87.77	1625
87.78	1645
87.79	1698
87.8	1719
87.81	1696
87.82	1673
87.83	1698
87.84	1675
87.85	1651
87.86	1595
87.87	1589
87.88	1646
87.89	1676
87.9	1661
87.91	1661
87.92	1648
87.93	1629
87.94	1639
87.95	1659
87.96	1663
87.97	1631
87.98	1571
87.99	1594
88.0	1645
88.01	1683
88.02	1669
88.03	1622
88.04	1590
88.05	1585
88.06	1595
88.07	1614
88.08	1620
88.09	1663
88.1	1691
88.11	1668
88.12	1645
88.13	1664
88.14	1637
88.15	1615
88.16	1629
88.17	1597
88.18	1598
88.19	1627
88.2	1610
88.21	1622
88.22	1657
88.23	1669
88.24	1641
88.25	1639
88.26	1644
88.27	1626
88.28	1628
88.29	1588
88.3	1575
88.31	1604
88.32	1642
88.33	1644
88.34	1654
88.35	1661
88.36	1646
88.37	1632
88.38	1621
88.39	1656
88.4	1652
88.41	1633
88.42	1627
88.43	1640
88.44	1613
88.45	1577
88.46	1600
88.47	1657
88.48	1692
88.49	1684
88.5	1666
88.51	1654
88.52	1651
88.53	1644
88.54	1637
88.55	1612
88.56	1614
88.57	1628
88.58	1676
88.59	1667
88.6	1660
88.61	1654
88.62	1623
88.63	1643
88.64	1665
88.65	1640
88.66	1617
88.67	1646
88.68	1666
88.69	1640
88.7	1650
88.71	1652
88.72	1641
88.73	1611
88.74	1612
88.75	1613
88.76	1615
88.77	1650
88.78	1638
88.79	1663
88.8	1661
88.81	1651
88.82	1652
88.83	1633
88.84	1615
88.85	1654
88.86	1652
88.87	1620
88.88	1640
88.89	1641
88.9	1653
88.91	1654
88.92	1633
88.93	1621
88.94	1652
88.95	1667
88.96	1654
88.97	1664
88.98	1658
88.99	1651
89.0	1633
89.01	1670
89.02	1692
89.03	1662
89.04	1614
89.05	1568
89.06	1572
89.07	1631
89.08	1653
89.09	1644
89.1	1602
89.11	1574
89.12	1570
89.13	1617
89.14	1666
89.15	1705
89.16	1652
89.17	1631
89.18	1649
89.19	1627
89.2	1613
89.21	1613
89.22	1638
89.23	1652
89.24	1649
89.25	1663
89.26	1666
89.27	1622
89.28	1617
89.29	1678
89.3	1697
89.31	1676
89.32	1639
89.33	1657
89.34	1664
89.35	1662
89.36	1649
89.37	1652
89.38	1664
89.39	1675
89.4	1679
89.41	1715
89.42	1703
89.43	1681
89.44	1660
89.45	1624
89.46	1615
89.47	1640
89.48	1644
89.49	1629
89.5	1637
89.51	1613
89.52	1583
89.53	1618
89.54	1629
89.55	1604
89.56	1631
89.57	1648
89.58	1638
89.59	1661
89.6	1694
89.61	1707
89.62	1692
89.63	1648
89.64	1649
89.65	1664
89.66	1654
89.67	1624
89.68	1599
89.69	1600
89.7	1620
89.71	1631
89.72	1664
89.73	1682
89.74	1657
89.75	1625
89.76	1641
89.77	1650
89.78	1667
89.79	1658
89.8	1646
89.81	1663
89.82	1659
89.83	1651
89.84	1628
89.85	1634
89.86	1636
89.87	1605
89.88	1613
89.89	1625
89.9	1643
89.91	1661
89.92	1631
89.93	1630
89.94	1667
89.95	1678
89.96	1673
89.97	1649
89.98	1630
89.99	1622
90.0	1614
90.01	1620
90.02	1613
90.03	1632
90.04	1638
90.05	1613
90.06	1634
90.07	1632
90.08	1602
90.09	1609
90.1	1622
90.11	1647
90.12	1644
90.13	1652
90.14	1654
90.15	1627
90.16	1609
90.17	1601
90.18	1613
90.19	1624
90.2	1650
90.21	1669
90.22	1648
90.23	1654
90.24	1630
90.25	1590
90.26	1628
90.27	1640
90.28	1646
90.29	1681
90.3	1686
90.31	1647
90.32	1639
90.33	1660
90.34	1626
90.35	1612
90.36	1630
90.37	1632
90.38	1624
90.39	1603
90.4	1627
90.41	1635
90.42	1644
90.43	1661
90.44	1623
90.45	1584
90.46	1633
90.47	1665
90.48	1666
90.49	1677
90.5	1674
90.51	1673
90.52	1652
90.53	1609
90.54	1589
90.55	1594
90.56	1599
90.57	1619
90.58	1643
90.59	1653
90.6	1653
90.61	1622
90.62	1595
90.63	1593
90.64	1611
90.65	1634
90.66	1642
90.67	1639
90.68	1627
90.69	1615
90.7	1602
90.71	1617
90.72	1639
90.73	1600
90.74	1582
90.75	1635
90.76	1653
90.77	1650
90.78	1676
90.79	1683
90.8	1655
90.81	1608
90.82	1600
90.83	1620
90.84	1623
90.85	1602
90.86	1596
90.87	1636
90.88	1638
90.89	1610
90.9	1628
90.91	1643
90.92	1646
90.93	1654
90.94	1642
90.95	1602
90.96	1602
90.97	1641
90.98	1611
90.99	1585
91.0	1623
91.01	1655
91.02	1666
91.03	1679
91.04	1690
91.05	1672
91.06	1625
91.07	1617
91.08	1621
91.09	1616
91.1	1647
91.11	1668
91.12	1674
91.13	1659
91.14	1637
91.15	1641
91.16	1629
91.17	1621
91.18	1642
91.19	1645
91.2	1626
91.21	1617
91.22	1625
91.23	1634
91.24	1642
91.25	1655
91.26	1651
91.27	1665
91.28	1680
91.29	1656
91.3	1662
91.31	1682
91.32	1671
91.33	1670
91.34	1660
91.35	1664
91.36	1687
91.37	1676
91.38	1654
91.39	1650
91.4	1648
91.41	1645
91.42	1659
91.43	1656
91.44	1649
91.45	1654
91.46	1656
91.47	1650
91.48	1626
91.49	1625
91.5	1604
91.51	1583
91.52	1615
91.53	1664
91.54	1688
91.55	1680
91.56	1681
91.57	1668
91.58	1644
91.59	1616
91.6	1602
91.61	1594
91.62	1608
91.63	1623
91.64	1607
91.65	1627
91.66	1645
91.67	1646
91.68	1668
91.69	1666
91.7	1638
91.71	1658
91.72	1670
91.73	1651
91.74	1683
91.75	1677
91.76	1646
91.77	1665
91.78	1683
91.79	1689
91.8	1679
91.81	1658
91.82	1659
91.83	1643
91.84	1611
91.85	1609
91.86	1617
91.87	1648
91.88	1642
91.89	1622
91.9	1658
91.91	1649
91.92	1618
91.93	1618
91.94	1651
91.95	1685
91.96	1653
91.97	1639
91.98	1684
91.99	1678
92.0	1609
92.01	1594
92.02	1623
92.03	1633
92.04	1638
92.05	1658
92.06	1693
92.07	1708
92.08	1676
92.09	1663
92.1	1680
92.11	1683
92.12	1653
92.13	1608
92.14	1614
92.15	1647
92.16	1633
92.17	1638
92.18	1681
92.19	1690
92.2	1663
92.21	1655
92.22	1638
92.23	1621
92.24	1648
92.25	1648
92.26	1632
92.27	1644
92.28	1663
92.29	1631
92.3	1627
92.31	1660
92.32	1639
92.33	1660
92.34	1669
92.35	1663
92.36	1650
92.37	1603
92.38	1619
92.39	1651
92.4	1690
92.41	1689
92.42	1693
92.43	1683
92.44	1648
92.45	1616
92.46	1608
92.47	1632
92.48	1664
92.49	1688
92.5	1641
92.51	1603
92.52	1653
92.53	1676
92.54	1670
92.55	1720
92.56	1762
92.57	1734
92.58	1691
92.59	1662
92.6	1659
92.61	1653
92.62	1692
92.63	1723
92.64	1702
92.65	1699
92.66	1685
92.67	1685
92.68	1694
92.69	1665
92.7	1686
92.71	1715
92.72	1682
92.73	1681
92.74	1701
92.75	1657
92.76	1642
92.77	1685
92.78	1718
92.79	1741
92.8	1702
92.81	1685
92.82	1680
92.83	1689
92.84	1707
92.85	1712
92.86	1701
92.87	1693
92.88	1707
92.89	1726
92.9	1733
92.91	1722
92.92	1706
92.93	1703
92.94	1705
92.95	1670
92.96	1660
92.97	1693
92.98	1732
92.99	1763
93.0	1732
93.01	1686
93.02	1659
93.03	1682
93.04	1729
93.05	1724
93.06	1679
93.07	1688
93.08	1701
93.09	1682
93.1	1674
93.11	1672
93.12	1675
93.13	1681
93.14	1660
93.15	1675
93.16	1702
93.17	1745
93.18	1730
93.19	1675
93.2	1694
93.21	1730
93.22	1743
93.23	1737
93.24	1723
93.25	1728
93.26	1756
93.27	1772
93.28	1756
93.29	1762
93.3	1763
93.31	1748
93.32	1741
93.33	1730
93.34	1704
93.35	1726
93.36	1761
93.37	1763
93.38	1764
93.39	1781
93.4	1802
93.41	1813
93.42	1791
93.43	1796
93.44	1837
93.45	1869
93.46	1840
93.47	1819
93.48	1806
93.49	1796
93.5	1818
93.51	1815
93.52	1791
93.53	1798
93.54	1803
93.55	1817
93.56	1853
93.57	1867
93.58	1864
93.59	1849
93.6	1832
93.61	1848
93.62	1851
93.63	1853
93.64	1894
93.65	1896
93.66	1880
93.67	1864
93.68	1863
93.69	1867
93.7	1860
93.71	1870
93.72	1895
93.73	1916
93.74	1920
93.75	1904
93.76	1882
93.77	1890
93.78	1889
93.79	1883
93.8	1873
93.81	1889
93.82	1873
93.83	1863
93.84	1850
93.85	1882
93.86	1899
93.87	1948
93.88	1942
93.89	1913
93.9	1936
93.91	1969
93.92	1951
93.93	1946
93.94	1947
93.95	1932
93.96	1939
93.97	1948
93.98	1957
93.99	1963
94.0	1939
94.01	1946
94.02	1950
94.03	1911
94.04	1910
94.05	1928
94.06	1930
94.07	1936
94.08	1889
94.09	1881
94.1	1903
94.11	1903
94.12	1923
94.13	1942
94.14	1983
94.15	1900
94.16	1845
94.17	1901
94.18	1907
94.19	1897
94.2	1901
94.21	1878
94.22	1904
94.23	1889
94.24	1894
94.25	1932
94.26	1891
94.27	1895
94.28	1854
94.29	1805
94.3	1808
94.31	1836
94.32	1833
94.33	1811
94.34	1762
94.35	1749
94.36	1787
94.37	1843
94.38	1855
94.39	1842
94.4	1807
94.41	1787
94.42	1805
94.43	1798
94.44	1843
94.45	1848
94.46	1772
94.47	1726
94.48	1735
94.49	1739
94.5	1738
94.51	1753
94.52	1756
94.53	1742
94.54	1728
94.55	1754
94.56	1731
94.57	1704
94.58	1689
94.59	1699
94.6	1676
94.61	1694
94.62	1725
94.63	1706
94.64	1705
94.65	1681
94.66	1670
94.67	1700
94.68	1676
94.69	1682
94.7	1735
94.71	1725
94.72	1654
94.73	1676
94.74	1675
94.75	1635
94.76	1650
94.77	1692
94.78	1677
94.79	1646
94.8	1665
94.81	1657
94.82	1622
94.83	1640
94.84	1687
94.85	1693
94.86	1696
94.87	1699
94.88	1676
94.89	1665
94.9	1668
94.91	1664
94.92	1650
94.93	1638
94.94	1682
94.95	1703
94.96	1670
94.97	1685
94.98	1695
94.99	1657
95.0	1636
95.01	1643
95.02	1654
95.03	1680
95.04	1712
95.05	1693
95.06	1671
95.07	1687
95.08	1712
95.09	1670
95.1	1685
95.11	1678
95.12	1698
95.13	1658
95.14	1644
95.15	1677
95.16	1670
95.17	1673
95.18	1684
95.19	1684
95.2	1668
95.21	1627
95.22	1620
95.23	1629
95.24	1614
95.25	1607
95.26	1612
95.27	1667
95.28	1674
95.29	1586
95.3	1608
95.31	1629
95.32	1632
95.33	1654
95.34	1682
95.35	1672
95.36	1647
95.37	1669
95.38	1682
95.39	1677
95.4	1684
95.41	1639
95.42	1647
95.43	1657
95.44	1671
95.45	1673
95.46	1654
95.47	1646
95.48	1640
95.49	1665
95.5	1685
95.51	1651
95.52	1607
95.53	1601
95.54	1654
95.55	1650
95.56	1637
95.57	1630
95.58	1651
95.59	1657
95.6	1674
95.61	1644
95.62	1667
95.63	1637
95.64	1627
95.65	1654
95.66	1651
95.67	1641
95.68	1647
95.69	1648
95.7	1682
95.71	1672
95.72	1627
95.73	1619
95.74	1653
95.75	1657
95.76	1685
95.77	1674
95.78	1620
95.79	1663
95.8	1706
95.81	1719
95.82	1672
95.83	1639
95.84	1657
95.85	1667
95.86	1641
95.87	1664
95.88	1670
95.89	1670
95.9	1659
95.91	1669
95.92	1678
95.93	1609
95.94	1585
95.95	1606
95.96	1664
95.97	1676
95.98	1673
95.99	1632
96.0	1652
96.01	1634
96.02	1645
96.03	1661
96.04	1638
96.05	1626
96.06	1660
96.07	1662
96.08	1652
96.09	1625
96.1	1637
96.11	1637
96.12	1689
96.13	1666
96.14	1641
96.15	1634
96.16	1643
96.17	1588
96.18	1613
96.19	1651
96.2	1625
96.21	1647
96.22	1723
96.23	1718
96.24	1658
96.25	1653
96.26	1636
96.27	1612
96.28	1676
96.29	1710
96.3	1676
96.31	1658
96.32	1650
96.33	1656
96.34	1663
96.35	1647
96.36	1574
96.37	1595
96.38	1641
96.39	1671
96.4	1670
96.41	1669
96.42	1660
96.43	1678
96.44	1667
96.45	1609
96.46	1638
96.47	1614
96.48	1558
96.49	1596
96.5	1599
96.51	1595
96.52	1647
96.53	1617
96.54	1593
96.55	1673
96.56	1607
96.57	1645
96.58	1683
96.59	1655
96.6	1644
96.61	1611
96.62	1595
96.63	1650
96.64	1650
96.65	1635
96.66	1611
96.67	1643
96.68	1669
96.69	1653
96.7	1633
96.71	1641
96.72	1657
96.73	1671
96.74	1676
96.75	1703
96.76	1643
96.77	1592
96.78	1589
96.79	1636
96.8	1665
96.81	1638
96.82	1634
96.83	1613
96.84	1655
96.85	1645
96.86	1659
96.87	1653
96.88	1587
96.89	1579
96.9	1639
96.91	1639
96.92	1643
96.93	1622
96.94	1669
96.95	1708
96.96	1700
96.97	1663
96.98	1674
96.99	1664
97.0	1649
97.01	1616
97.02	1622
97.03	1645
97.04	1610
97.05	1633
97.06	1659
97.07	1643
97.08	1651
97.09	1641
97.1	1650
97.11	1657
97.12	1663
97.13	1638
97.14	1643
97.15	1629
97.16	1636
97.17	1624
97.18	1580
97.19	1617
97.2	1672
97.21	1665
97.22	1659
97.23	1614
97.24	1621
97.25	1597
97.26	1639
97.27	1657
97.28	1618
97.29	1667
97.3	1656
97.31	1690
97.32	1666
97.33	1648
97.34	1642
97.35	1647
97.36	1676
97.37	1682
97.38	1621
97.39	1621
97.4	1704
97.41	1653
97.42	1652
97.43	1691
97.44	1659
97.45	1657
97.46	1662
97.47	1667
97.48	1655
97.49	1632
97.5	1605
97.51	1620
97.52	1626
97.53	1656
97.54	1642
97.55	1621
97.56	1598
97.57	1569
97.58	1637
97.59	1664
97.6	1675
97.61	1690
97.62	1668
97.63	1685
97.64	1694
97.65	1667
97.66	1662
97.67	1694
97.68	1670
97.69	1677
97.7	1670
97.71	1593
97.72	1579
97.73	1631
97.74	1671
97.75	1632
97.76	1666
97.77	1669
97.78	1623
97.79	1638
97.8	1671
97.81	1667
97.82	1664
97.83	1673
97.84	1686
97.85	1647
97.86	1652
97.87	1663
97.88	1688
97.89	1687
97.9	1687
97.91	1637
97.92	1635
97.93	1658
97.94	1650
97.95	1629
97.96	1641
97.97	1641
97.98	1644
97.99	1665
98.0	1666
98.01	1644
98.02	1662
98.03	1677
98.04	1688
98.05	1683
98.06	1646
98.07	1653
98.08	1653
98.09	1678
98.1	1678
98.11	1650
98.12	1653
98.13	1623
98.14	1616
98.15	1655
98.16	1666
98.17	1654
98.18	1617
98.19	1632
98.2	1656
98.21	1676
98.22	1682
98.23	1664
98.24	1666
98.25	1704
98.26	1695
98.27	1675
98.28	1675
98.29	1634
98.3	1650
98.31	1671
98.32	1702
98.33	1735
98.34	1697
98.35	1671
98.36	1701
98.37	1677
98.38	1684
98.39	1699
98.4	1685
98.41	1691
98.42	1715
98.43	1701
98.44	1693
98.45	1725
98.46	1733
98.47	1695
98.48	1678
98.49	1725
98.5	1706
98.51	1746
98.52	1711
98.53	1705
98.54	1727
98.55	1706
98.56	1756
98.57	1734
98.58	1696
98.59	1730
98.6	1760
98.61	1739
98.62	1719
98.63	1697
98.64	1733
98.65	1730
98.66	1748
98.67	1772
98.68	1786
98.69	1769
98.7	1739
98.71	1750
98.72	1807
98.73	1804
98.74	1828
98.75	1793
98.76	1744
98.77	1782
98.78	1815
98.79	1840
98.8	1829
98.81	1800
98.82	1824
98.83	1821
98.84	1793
98.85	1865
98.86	1861
98.87	1818
98.88	1839
98.89	1834
98.9	1897
98.91	1940
98.92	1901
98.93	1870
98.94	1875
98.95	1867
98.96	1862
98.97	1866
98.98	1875
98.99	1912
99.0	1940
99.01	1955
99.02	1988
99.03	1977
99.04	1950
99.05	1993
99.06	1982
99.07	2018
99.08	2050
99.09	2038
99.1	1981
99.11	1984
99.12	1997
99.13	2010
99.14	2035
99.15	1998
99.16	2022
99.17	2027
99.18	1993
99.19	2046
99.2	2082
99.21	2031
99.22	2032
99.23	2038
99.24	2031
99.25	2038
99.26	2039
99.27	2054
99.28	2048
99.29	2021
99.3	1955
99.31	1945
99.32	1946
99.33	1966
99.34	1951
99.35	1966
99.36	1960
99.37	1918
99.38	1882
99.39	1973
99.4	1913
99.41	1893
99.42	1914
99.43	1921
99.44	1970
99.45	1969
99.46	1877
99.47	1862
99.48	1895
99.49	1937
99.5	1915
99.51	1904
99.52	1885
99.53	1868
99.54	1882
99.55	1851
99.56	1847
99.57	1859
99.58	1892
99.59	1859
99.6	1821
99.61	1817
99.62	1799
99.63	1808
99.64	1799
99.65	1834
99.66	1844
99.67	1815
99.68	1800
99.69	1797
99.7	1790
99.71	1773
99.72	1801
99.73	1756
99.74	1767
99.75	1778
99.76	1759
99.77	1742
99.78	1762
99.79	1804
99.8	1815
99.81	1768
99.82	1708
99.83	1713
99.84	1746
99.85	1718
99.86	1712
99.87	1730
99.88	1741
99.89	1694
99.9	1707
99.91	1720
99.92	1670
99.93	1703
99.94	1702
99.95	1705
99.96	1710
99.97	1688
99.98	1695
99.99	1753
100.0	1737
